waveform	Ch0	
t0	03/06/2025  21:41:17.395097	
delta t	0.000500	

time[0]	Ch0
03/06/2025  21:41:17.395097	-1.137072E-1
03/06/2025  21:41:17.395597	-8.614973E-2
03/06/2025  21:41:17.396097	-6.650479E-2
03/06/2025  21:41:17.396597	-6.070680E-2
03/06/2025  21:41:17.397097	-4.065259E-2
03/06/2025  21:41:17.397597	-3.253541E-2
03/06/2025  21:41:17.398097	-2.039374E-2
03/06/2025  21:41:17.398597	-8.388503E-3
03/06/2025  21:41:17.399097	-6.819636E-3
03/06/2025  21:41:17.399597	9.564861E-4
03/06/2025  21:41:17.400097	-3.204422E-3
03/06/2025  21:41:17.400597	8.323339E-3
03/06/2025  21:41:17.401097	1.118823E-2
03/06/2025  21:41:17.401597	1.057432E-2
03/06/2025  21:41:17.402097	-8.797773E-3
03/06/2025  21:41:17.402597	-1.691495E-2
03/06/2025  21:41:17.403097	-4.331284E-2
03/06/2025  21:41:17.403597	-5.177108E-2
03/06/2025  21:41:17.404097	-7.366700E-2
03/06/2025  21:41:17.404597	-8.696827E-2
03/06/2025  21:41:17.405097	-8.887819E-2
03/06/2025  21:41:17.405597	-1.035437E-1
03/06/2025  21:41:17.406097	-1.143211E-1
03/06/2025  21:41:17.406597	-1.419468E-1
03/06/2025  21:41:17.407097	-1.550434E-1
03/06/2025  21:41:17.407597	-1.746202E-1
03/06/2025  21:41:17.408097	-1.733924E-1
03/06/2025  21:41:17.408597	-1.863526E-1
03/06/2025  21:41:17.409097	-2.045651E-1
03/06/2025  21:41:17.409597	-1.938558E-1
03/06/2025  21:41:17.410097	-2.151379E-1
03/06/2025  21:41:17.410597	-2.102948E-1
03/06/2025  21:41:17.411097	-2.045651E-1
03/06/2025  21:41:17.411597	-1.942651E-1
03/06/2025  21:41:17.412097	-1.874440E-1
03/06/2025  21:41:17.412597	-1.864208E-1
03/06/2025  21:41:17.413097	-1.704593E-1
03/06/2025  21:41:17.413597	-1.611143E-1
03/06/2025  21:41:17.414097	-1.450163E-1
03/06/2025  21:41:17.414597	-1.270085E-1
03/06/2025  21:41:17.415097	-9.494902E-2
03/06/2025  21:41:17.415597	-8.519477E-2
03/06/2025  21:41:17.416097	-8.089743E-2
03/06/2025  21:41:17.416597	-5.702337E-2
03/06/2025  21:41:17.417097	-4.467707E-2
03/06/2025  21:41:17.417597	-4.440423E-2
03/06/2025  21:41:17.418097	-1.254941E-2
03/06/2025  21:41:17.418597	-1.227656E-2
03/06/2025  21:41:17.419097	-6.137520E-3
03/06/2025  21:41:17.419597	4.435278E-3
03/06/2025  21:41:17.420097	2.525353E-3
03/06/2025  21:41:17.420597	-3.886538E-3
03/06/2025  21:41:17.421097	9.564861E-4
03/06/2025  21:41:17.421597	-4.909712E-3
03/06/2025  21:41:17.422097	-4.295807E-3
03/06/2025  21:41:17.422597	-2.278115E-2
03/06/2025  21:41:17.423097	-2.578246E-2
03/06/2025  21:41:17.423597	-4.604131E-2
03/06/2025  21:41:17.424097	-7.012000E-2
03/06/2025  21:41:17.424597	-9.713180E-2
03/06/2025  21:41:17.425097	-1.030662E-1
03/06/2025  21:41:17.425597	-1.235297E-1
03/06/2025  21:41:17.426097	-1.229158E-1
03/06/2025  21:41:17.426597	-1.441296E-1
03/06/2025  21:41:17.427097	-1.555891E-1
03/06/2025  21:41:17.427597	-1.682765E-1
03/06/2025  21:41:17.428097	-1.763937E-1
03/06/2025  21:41:17.428597	-1.964479E-1
03/06/2025  21:41:17.429097	-2.014273E-1
03/06/2025  21:41:17.429597	-2.199127E-1
03/06/2025  21:41:17.430097	-2.148650E-1
03/06/2025  21:41:17.430597	-2.021777E-1
03/06/2025  21:41:17.431097	-1.956293E-1
03/06/2025  21:41:17.431597	-2.012227E-1
03/06/2025  21:41:17.432097	-1.910592E-1
03/06/2025  21:41:17.432597	-1.774168E-1
03/06/2025  21:41:17.433097	-1.665030E-1
03/06/2025  21:41:17.433597	-1.396276E-1
03/06/2025  21:41:17.434097	-1.514964E-1
03/06/2025  21:41:17.434597	-1.361488E-1
03/06/2025  21:41:17.435097	-1.152761E-1
03/06/2025  21:41:17.435597	-9.153844E-2
03/06/2025  21:41:17.436097	-6.848292E-2
03/06/2025  21:41:17.436597	-4.638236E-2
03/06/2025  21:41:17.437097	-3.485460E-2
03/06/2025  21:41:17.437597	-2.339506E-2
03/06/2025  21:41:17.438097	-1.302689E-2
03/06/2025  21:41:17.438597	-9.343466E-3
03/06/2025  21:41:17.439097	-2.031111E-4
03/06/2025  21:41:17.439597	1.016505E-2
03/06/2025  21:41:17.440097	8.459762E-3
03/06/2025  21:41:17.440597	1.159750E-2
03/06/2025  21:41:17.441097	2.729988E-3
03/06/2025  21:41:17.441597	-5.796462E-3
03/06/2025  21:41:17.442097	-1.677853E-2
03/06/2025  21:41:17.442597	-2.816987E-2
03/06/2025  21:41:17.443097	-3.703738E-2
03/06/2025  21:41:17.443597	-5.074791E-2
03/06/2025  21:41:17.444097	-6.200282E-2
03/06/2025  21:41:17.444597	-7.005179E-2
03/06/2025  21:41:17.445097	-8.799144E-2
03/06/2025  21:41:17.445597	-9.106096E-2
03/06/2025  21:41:17.446097	-1.338978E-1
03/06/2025  21:41:17.446597	-1.410601E-1
03/06/2025  21:41:17.447097	-1.587951E-1
03/06/2025  21:41:17.447597	-1.781672E-1
03/06/2025  21:41:17.448097	-1.898314E-1
03/06/2025  21:41:17.448597	-1.876486E-1
03/06/2025  21:41:17.449097	-1.949472E-1
03/06/2025  21:41:17.449597	-1.933784E-1
03/06/2025  21:41:17.450097	-2.045651E-1
03/06/2025  21:41:17.450597	-2.120683E-1
03/06/2025  21:41:17.451097	-1.939923E-1
03/06/2025  21:41:17.451597	-2.025869E-1
03/06/2025  21:41:17.452097	-1.933102E-1
03/06/2025  21:41:17.452597	-1.769394E-1
03/06/2025  21:41:17.453097	-1.683447E-1
03/06/2025  21:41:17.453597	-1.621375E-1
03/06/2025  21:41:17.454097	-1.297369E-1
03/06/2025  21:41:17.454597	-1.254396E-1
03/06/2025  21:41:17.455097	-1.096145E-1
03/06/2025  21:41:17.455597	-8.103386E-2
03/06/2025  21:41:17.456097	-6.902862E-2
03/06/2025  21:41:17.456597	-4.924725E-2
03/06/2025  21:41:17.457097	-3.042085E-2
03/06/2025  21:41:17.457597	-2.237188E-2
03/06/2025  21:41:17.458097	-3.477268E-3
03/06/2025  21:41:17.458597	-8.593138E-3
03/06/2025  21:41:17.459097	3.480315E-3
03/06/2025  21:41:17.459597	1.091538E-2
03/06/2025  21:41:17.460097	1.398490E-2
03/06/2025  21:41:17.460597	6.276991E-3
03/06/2025  21:41:17.461097	8.459762E-3
03/06/2025  21:41:17.461597	-2.658729E-3
03/06/2025  21:41:17.462097	-2.701027E-2
03/06/2025  21:41:17.462597	-1.405007E-2
03/06/2025  21:41:17.463097	-3.355858E-2
03/06/2025  21:41:17.463597	-4.304000E-2
03/06/2025  21:41:17.464097	-6.104786E-2
03/06/2025  21:41:17.464597	-7.284847E-2
03/06/2025  21:41:17.465097	-8.792323E-2
03/06/2025  21:41:17.465597	-1.134344E-1
03/06/2025  21:41:17.466097	-1.224383E-1
03/06/2025  21:41:17.466597	-1.309647E-1
03/06/2025  21:41:17.467097	-1.550434E-1
03/06/2025  21:41:17.467597	-1.638427E-1
03/06/2025  21:41:17.468097	-1.730513E-1
03/06/2025  21:41:17.468597	-1.759844E-1
03/06/2025  21:41:17.469097	-1.978803E-1
03/06/2025  21:41:17.469597	-2.087942E-1
03/06/2025  21:41:17.470097	-2.058611E-1
03/06/2025  21:41:17.470597	-2.005406E-1
03/06/2025  21:41:17.471097	-1.857387E-1
03/06/2025  21:41:17.471597	-1.927645E-1
03/06/2025  21:41:17.472097	-1.881261E-1
03/06/2025  21:41:17.472597	-1.789857E-1
03/06/2025  21:41:17.473097	-1.652070E-1
03/06/2025  21:41:17.473597	-1.463124E-1
03/06/2025  21:41:17.474097	-1.315787E-1
03/06/2025  21:41:17.474597	-1.177999E-1
03/06/2025  21:41:17.475097	-1.072953E-1
03/06/2025  21:41:17.475597	-7.305310E-2
03/06/2025  21:41:17.476097	-6.930146E-2
03/06/2025  21:41:17.476597	-6.268494E-2
03/06/2025  21:41:17.477097	-4.863335E-2
03/06/2025  21:41:17.477597	-3.369501E-2
03/06/2025  21:41:17.478097	-1.241299E-2
03/06/2025  21:41:17.478597	-8.729561E-3
03/06/2025  21:41:17.479097	7.231953E-3
03/06/2025  21:41:17.479597	5.731298E-3
03/06/2025  21:41:17.480097	9.551148E-3
03/06/2025  21:41:17.480597	-9.275254E-3
03/06/2025  21:41:17.481097	6.890895E-3
03/06/2025  21:41:17.481597	-1.309510E-2
03/06/2025  21:41:17.482097	-5.046135E-3
03/06/2025  21:41:17.482597	-2.544140E-2
03/06/2025  21:41:17.483097	-2.769239E-2
03/06/2025  21:41:17.483597	-4.419959E-2
03/06/2025  21:41:17.484097	-5.272604E-2
03/06/2025  21:41:17.484597	-7.994247E-2
03/06/2025  21:41:17.485097	-8.621794E-2
03/06/2025  21:41:17.485597	-9.835960E-2
03/06/2025  21:41:17.486097	-1.231886E-1
03/06/2025  21:41:17.486597	-1.438567E-1
03/06/2025  21:41:17.487097	-1.454938E-1
03/06/2025  21:41:17.487597	-1.671169E-1
03/06/2025  21:41:17.488097	-1.742109E-1
03/06/2025  21:41:17.488597	-1.875804E-1
03/06/2025  21:41:17.489097	-2.073617E-1
03/06/2025  21:41:17.489597	-2.148650E-1
03/06/2025  21:41:17.490097	-2.218908E-1
03/06/2025  21:41:17.490597	-2.122048E-1
03/06/2025  21:41:17.491097	-2.089988E-1
03/06/2025  21:41:17.491597	-2.064068E-1
03/06/2025  21:41:17.492097	-1.933784E-1
03/06/2025  21:41:17.492597	-1.755069E-1
03/06/2025  21:41:17.493097	-1.581130E-1
03/06/2025  21:41:17.493597	-1.512918E-1
03/06/2025  21:41:17.494097	-1.427654E-1
03/06/2025  21:41:17.494597	-1.144575E-1
03/06/2025  21:41:17.495097	-1.032708E-1
03/06/2025  21:41:17.495597	-8.840071E-2
03/06/2025  21:41:17.496097	-6.664121E-2
03/06/2025  21:41:17.496597	-4.460886E-2
03/06/2025  21:41:17.497097	-4.645058E-2
03/06/2025  21:41:17.497597	-2.250830E-2
03/06/2025  21:41:17.498097	-1.261762E-2
03/06/2025  21:41:17.498597	-4.841500E-3
03/06/2025  21:41:17.499097	-6.546790E-3
03/06/2025  21:41:17.499597	3.821373E-3
03/06/2025  21:41:17.500097	2.525353E-3
03/06/2025  21:41:17.500597	4.162431E-3
03/06/2025  21:41:17.501097	-3.409056E-3
03/06/2025  21:41:17.501597	6.481626E-3
03/06/2025  21:41:17.502097	-6.137520E-3
03/06/2025  21:41:17.502597	-2.032553E-2
03/06/2025  21:41:17.503097	-3.956120E-2
03/06/2025  21:41:17.503597	-4.638236E-2
03/06/2025  21:41:17.504097	-7.189350E-2
03/06/2025  21:41:17.504597	-8.662721E-2
03/06/2025  21:41:17.505097	-9.303910E-2
03/06/2025  21:41:17.505597	-1.126840E-1
03/06/2025  21:41:17.506097	-1.513600E-1
03/06/2025  21:41:17.506597	-1.522468E-1
03/06/2025  21:41:17.507097	-1.644566E-1
03/06/2025  21:41:17.507597	-1.712778E-1
03/06/2025  21:41:17.508097	-1.935148E-1
03/06/2025  21:41:17.508597	-1.896267E-1
03/06/2025  21:41:17.509097	-2.055200E-1
03/06/2025  21:41:17.509597	-2.112498E-1
03/06/2025  21:41:17.510097	-2.109770E-1
03/06/2025  21:41:17.510597	-2.019730E-1
03/06/2025  21:41:17.511097	-2.051108E-1
03/06/2025  21:41:17.511597	-1.967889E-1
03/06/2025  21:41:17.512097	-2.029280E-1
03/06/2025  21:41:17.512597	-1.870347E-1
03/06/2025  21:41:17.513097	-1.773486E-1
03/06/2025  21:41:17.513597	-1.713460E-1
03/06/2025  21:41:17.514097	-1.529971E-1
03/06/2025  21:41:17.514597	-1.248939E-1
03/06/2025  21:41:17.515097	-1.055900E-1
03/06/2025  21:41:17.515597	-1.092052E-1
03/06/2025  21:41:17.516097	-8.956031E-2
03/06/2025  21:41:17.516597	-6.936967E-2
03/06/2025  21:41:17.517097	-4.631415E-2
03/06/2025  21:41:17.517597	-4.276715E-2
03/06/2025  21:41:17.518097	-2.489571E-2
03/06/2025  21:41:17.518597	-8.865984E-3
03/06/2025  21:41:17.519097	-8.047445E-3
03/06/2025  21:41:17.519597	4.162431E-3
03/06/2025  21:41:17.520097	-6.546790E-3
03/06/2025  21:41:17.520597	7.095530E-3
03/06/2025  21:41:17.521097	-1.323153E-2
03/06/2025  21:41:17.521597	-2.332684E-2
03/06/2025  21:41:17.522097	-2.209903E-2
03/06/2025  21:41:17.522597	-3.553672E-2
03/06/2025  21:41:17.523097	-4.051617E-2
03/06/2025  21:41:17.523597	-5.238499E-2
03/06/2025  21:41:17.524097	-6.363990E-2
03/06/2025  21:41:17.524597	-9.256162E-2
03/06/2025  21:41:17.525097	-9.808676E-2
03/06/2025  21:41:17.525597	-1.206648E-1
03/06/2025  21:41:17.526097	-1.448799E-1
03/06/2025  21:41:17.526597	-1.405826E-1
03/06/2025  21:41:17.527097	-1.737334E-1
03/06/2025  21:41:17.527597	-1.937876E-1
03/06/2025  21:41:17.528097	-1.909227E-1
03/06/2025  21:41:17.528597	-1.949472E-1
03/06/2025  21:41:17.529097	-1.918777E-1
03/06/2025  21:41:17.529597	-2.094081E-1
03/06/2025  21:41:17.530097	-2.098856E-1
03/06/2025  21:41:17.530597	-2.021094E-1
03/06/2025  21:41:17.531097	-1.943333E-1
03/06/2025  21:41:17.531597	-1.944697E-1
03/06/2025  21:41:17.532097	-2.029962E-1
03/06/2025  21:41:17.532597	-1.832830E-1
03/06/2025  21:41:17.533097	-1.632970E-1
03/06/2025  21:41:17.533597	-1.507461E-1
03/06/2025  21:41:17.534097	-1.280999E-1
03/06/2025  21:41:17.534597	-1.276224E-1
03/06/2025  21:41:17.535097	-1.083185E-1
03/06/2025  21:41:17.535597	-1.044986E-1
03/06/2025  21:41:17.536097	-7.032464E-2
03/06/2025  21:41:17.536597	-5.784191E-2
03/06/2025  21:41:17.537097	-4.160755E-2
03/06/2025  21:41:17.537597	-2.837450E-2
03/06/2025  21:41:17.538097	-1.534609E-2
03/06/2025  21:41:17.538597	-1.098054E-2
03/06/2025  21:41:17.539097	-8.047445E-3
03/06/2025  21:41:17.539597	5.526663E-3
03/06/2025  21:41:17.540097	3.412104E-3
03/06/2025  21:41:17.540597	5.185605E-3
03/06/2025  21:41:17.541097	-3.067998E-3
03/06/2025  21:41:17.541597	-3.340845E-3
03/06/2025  21:41:17.542097	-2.544140E-2
03/06/2025  21:41:17.542597	-2.994337E-2
03/06/2025  21:41:17.543097	-3.014800E-2
03/06/2025  21:41:17.543597	-5.661410E-2
03/06/2025  21:41:17.544097	-6.650479E-2
03/06/2025  21:41:17.544597	-8.608152E-2
03/06/2025  21:41:17.545097	-9.460797E-2
03/06/2025  21:41:17.545597	-1.302826E-1
03/06/2025  21:41:17.546097	-1.527925E-1
03/06/2025  21:41:17.546597	-1.709367E-1
03/06/2025  21:41:17.547097	-1.893539E-1
03/06/2025  21:41:17.547597	-1.791904E-1
03/06/2025  21:41:17.548097	-1.905817E-1
03/06/2025  21:41:17.548597	-2.115909E-1
03/06/2025  21:41:17.549097	-2.243464E-1
03/06/2025  21:41:17.549597	-2.205948E-1
03/06/2025  21:41:17.550097	-2.181392E-1
03/06/2025  21:41:17.550597	-2.218226E-1
03/06/2025  21:41:17.551097	-2.159564E-1
03/06/2025  21:41:17.551597	-2.174571E-1
03/06/2025  21:41:17.552097	-2.030644E-1
03/06/2025  21:41:17.552597	-2.120001E-1
03/06/2025  21:41:17.553097	-1.984942E-1
03/06/2025  21:41:17.553597	-1.687540E-1
03/06/2025  21:41:17.554097	-1.534746E-1
03/06/2025  21:41:17.554597	-1.438567E-1
03/06/2025  21:41:17.555097	-1.352621E-1
03/06/2025  21:41:17.555597	-1.089324E-1
03/06/2025  21:41:17.556097	-9.583578E-2
03/06/2025  21:41:17.556597	-7.612262E-2
03/06/2025  21:41:17.557097	-5.886509E-2
03/06/2025  21:41:17.557597	-4.992937E-2
03/06/2025  21:41:17.558097	-3.853803E-2
03/06/2025  21:41:17.558597	-4.324463E-2
03/06/2025  21:41:17.559097	-1.623284E-2
03/06/2025  21:41:17.559597	-1.220835E-2
03/06/2025  21:41:17.560097	-1.391364E-2
03/06/2025  21:41:17.560597	-8.388503E-3
03/06/2025  21:41:17.561097	-7.092483E-3
03/06/2025  21:41:17.561597	-7.501752E-3
03/06/2025  21:41:17.562097	-1.582357E-2
03/06/2025  21:41:17.562597	-2.244009E-2
03/06/2025  21:41:17.563097	-4.679163E-2
03/06/2025  21:41:17.563597	-4.761017E-2
03/06/2025  21:41:17.564097	-5.429491E-2
03/06/2025  21:41:17.564597	-7.980605E-2
03/06/2025  21:41:17.565097	-9.160666E-2
03/06/2025  21:41:17.565597	-1.129569E-1
03/06/2025  21:41:17.566097	-1.171860E-1
03/06/2025  21:41:17.566597	-1.411965E-1
03/06/2025  21:41:17.567097	-1.446753E-1
03/06/2025  21:41:17.567597	-1.596136E-1
03/06/2025  21:41:17.568097	-1.756433E-1
03/06/2025  21:41:17.568597	-1.826009E-1
03/06/2025  21:41:17.569097	-1.929009E-1
03/06/2025  21:41:17.569597	-1.965161E-1
03/06/2025  21:41:17.570097	-1.958340E-1
03/06/2025  21:41:17.570597	-1.930373E-1
03/06/2025  21:41:17.571097	-1.878532E-1
03/06/2025  21:41:17.571597	-1.929009E-1
03/06/2025  21:41:17.572097	-1.665712E-1
03/06/2025  21:41:17.572597	-1.595454E-1
03/06/2025  21:41:17.573097	-1.504733E-1
03/06/2025  21:41:17.573597	-1.439250E-1
03/06/2025  21:41:17.574097	-1.298734E-1
03/06/2025  21:41:17.574597	-1.081139E-1
03/06/2025  21:41:17.575097	-8.710469E-2
03/06/2025  21:41:17.575597	-7.680474E-2
03/06/2025  21:41:17.576097	-4.058438E-2
03/06/2025  21:41:17.576597	-3.014800E-2
03/06/2025  21:41:17.577097	-1.582357E-2
03/06/2025  21:41:17.577597	-8.661350E-3
03/06/2025  21:41:17.578097	6.481626E-3
03/06/2025  21:41:17.578597	1.323457E-2
03/06/2025  21:41:17.579097	2.865040E-2
03/06/2025  21:41:17.579597	3.417554E-2
03/06/2025  21:41:17.580097	2.517160E-2
03/06/2025  21:41:17.580597	3.308415E-2
03/06/2025  21:41:17.581097	2.810470E-2
03/06/2025  21:41:17.581597	2.851397E-2
03/06/2025  21:41:17.582097	1.500808E-2
03/06/2025  21:41:17.582597	1.637231E-2
03/06/2025  21:41:17.583097	-7.297118E-3
03/06/2025  21:41:17.583597	-1.793813E-2
03/06/2025  21:41:17.584097	-2.407717E-2
03/06/2025  21:41:17.584597	-4.836050E-2
03/06/2025  21:41:17.585097	-5.675053E-2
03/06/2025  21:41:17.585597	-7.919214E-2
03/06/2025  21:41:17.586097	-9.249341E-2
03/06/2025  21:41:17.586597	-1.026569E-1
03/06/2025  21:41:17.587097	-1.167767E-1
03/06/2025  21:41:17.587597	-1.390819E-1
03/06/2025  21:41:17.588097	-1.522468E-1
03/06/2025  21:41:17.588597	-1.598865E-1
03/06/2025  21:41:17.589097	-1.626149E-1
03/06/2025  21:41:17.589597	-1.640474E-1
03/06/2025  21:41:17.590097	-1.690950E-1
03/06/2025  21:41:17.590597	-1.750294E-1
03/06/2025  21:41:17.591097	-1.702546E-1
03/06/2025  21:41:17.591597	-1.682765E-1
03/06/2025  21:41:17.592097	-1.674580E-1
03/06/2025  21:41:17.592597	-1.548388E-1
03/06/2025  21:41:17.593097	-1.257125E-1
03/06/2025  21:41:17.593597	-1.192324E-1
03/06/2025  21:41:17.594097	-1.053172E-1
03/06/2025  21:41:17.594597	-7.557693E-2
03/06/2025  21:41:17.595097	-6.282136E-2
03/06/2025  21:41:17.595597	-5.265783E-2
03/06/2025  21:41:17.596097	-4.024332E-2
03/06/2025  21:41:17.596597	-2.435002E-2
03/06/2025  21:41:17.597097	-1.248120E-2
03/06/2025  21:41:17.597597	-2.454094E-3
03/06/2025  21:41:17.598097	5.049182E-3
03/06/2025  21:41:17.598597	2.271599E-2
03/06/2025  21:41:17.599097	2.278420E-2
03/06/2025  21:41:17.599597	2.503518E-2
03/06/2025  21:41:17.600097	2.462591E-2
03/06/2025  21:41:17.600597	2.776365E-2
03/06/2025  21:41:17.601097	1.698621E-2
03/06/2025  21:41:17.601597	7.709435E-3
03/06/2025  21:41:17.602097	2.101070E-2
03/06/2025  21:41:17.602597	-1.118518E-2
03/06/2025  21:41:17.603097	-2.305400E-2
03/06/2025  21:41:17.603597	-5.013400E-2
03/06/2025  21:41:17.604097	-5.258962E-2
03/06/2025  21:41:17.604597	-7.557693E-2
03/06/2025  21:41:17.605097	-8.328484E-2
03/06/2025  21:41:17.605597	-1.115927E-1
03/06/2025  21:41:17.606097	-1.368309E-1
03/06/2025  21:41:17.606597	-1.410601E-1
03/06/2025  21:41:17.607097	-1.605004E-1
03/06/2025  21:41:17.607597	-1.619328E-1
03/06/2025  21:41:17.608097	-1.729831E-1
03/06/2025  21:41:17.608597	-1.888764E-1
03/06/2025  21:41:17.609097	-1.886718E-1
03/06/2025  21:41:17.609597	-1.950837E-1
03/06/2025  21:41:17.610097	-1.956293E-1
03/06/2025  21:41:17.610597	-1.836923E-1
03/06/2025  21:41:17.611097	-1.818506E-1
03/06/2025  21:41:17.611597	-1.794632E-1
03/06/2025  21:41:17.612097	-1.875122E-1
03/06/2025  21:41:17.612597	-1.841016E-1
03/06/2025  21:41:17.613097	-1.716189E-1
03/06/2025  21:41:17.613597	-1.466534E-1
03/06/2025  21:41:17.614097	-1.268038E-1
03/06/2025  21:41:17.614597	-1.179363E-1
03/06/2025  21:41:17.615097	-1.126840E-1
03/06/2025  21:41:17.615597	-1.008834E-1
03/06/2025  21:41:17.616097	-7.516766E-2
03/06/2025  21:41:17.616597	-6.152534E-2
03/06/2025  21:41:17.617097	-4.529098E-2
03/06/2025  21:41:17.617597	-1.561893E-2
03/06/2025  21:41:17.618097	-1.609641E-2
03/06/2025  21:41:17.618597	-3.340845E-3
03/06/2025  21:41:17.619097	-1.445934E-2
03/06/2025  21:41:17.619597	3.139257E-3
03/06/2025  21:41:17.620097	7.300165E-3
03/06/2025  21:41:17.620597	2.743701E-4
03/06/2025  21:41:17.621097	-8.115657E-3
03/06/2025  21:41:17.621597	-1.289047E-2
03/06/2025  21:41:17.622097	-1.814276E-2
03/06/2025  21:41:17.622597	-2.694206E-2
03/06/2025  21:41:17.623097	-3.580957E-2
03/06/2025  21:41:17.623597	-6.404917E-2
03/06/2025  21:41:17.624097	-7.428091E-2
03/06/2025  21:41:17.624597	-9.972384E-2
03/06/2025  21:41:17.625097	-1.057947E-1
03/06/2025  21:41:17.625597	-1.188231E-1
03/06/2025  21:41:17.626097	-1.408554E-1
03/06/2025  21:41:17.626597	-1.570898E-1
03/06/2025  21:41:17.627097	-1.624103E-1
03/06/2025  21:41:17.627597	-1.738698E-1
03/06/2025  21:41:17.628097	-1.804864E-1
03/06/2025  21:41:17.628597	-2.023823E-1
03/06/2025  21:41:17.629097	-2.140465E-1
03/06/2025  21:41:17.629597	-2.122048E-1
03/06/2025  21:41:17.630097	-2.250285E-1
03/06/2025  21:41:17.630597	-2.153425E-1
03/06/2025  21:41:17.631097	-2.130915E-1
03/06/2025  21:41:17.631597	-2.053836E-1
03/06/2025  21:41:17.632097	-2.058611E-1
03/06/2025  21:41:17.632597	-2.051108E-1
03/06/2025  21:41:17.633097	-1.713460E-1
03/06/2025  21:41:17.633597	-1.567487E-1
03/06/2025  21:41:17.634097	-1.420832E-1
03/06/2025  21:41:17.634597	-1.177999E-1
03/06/2025  21:41:17.635097	-1.033391E-1
03/06/2025  21:41:17.635597	-9.897351E-2
03/06/2025  21:41:17.636097	-8.649079E-2
03/06/2025  21:41:17.636597	-5.811476E-2
03/06/2025  21:41:17.637097	-4.808765E-2
03/06/2025  21:41:17.637597	-4.460886E-2
03/06/2025  21:41:17.638097	-1.677853E-2
03/06/2025  21:41:17.638597	-1.807455E-2
03/06/2025  21:41:17.639097	-1.214014E-2
03/06/2025  21:41:17.639597	3.425817E-4
03/06/2025  21:41:17.640097	1.036969E-2
03/06/2025  21:41:17.640597	2.525353E-3
03/06/2025  21:41:17.641097	-3.477268E-3
03/06/2025  21:41:17.641597	-3.886538E-3
03/06/2025  21:41:17.642097	-2.141692E-2
03/06/2025  21:41:17.642597	-2.728312E-2
03/06/2025  21:41:17.643097	-4.692806E-2
03/06/2025  21:41:17.643597	-6.125249E-2
03/06/2025  21:41:17.644097	-7.366700E-2
03/06/2025  21:41:17.644597	-9.665431E-2
03/06/2025  21:41:17.645097	-1.098192E-1
03/06/2025  21:41:17.645597	-1.252350E-1
03/06/2025  21:41:17.646097	-1.525878E-1
03/06/2025  21:41:17.646597	-1.727785E-1
03/06/2025  21:41:17.647097	-1.746884E-1
03/06/2025  21:41:17.647597	-1.796678E-1
03/06/2025  21:41:17.648097	-1.793950E-1
03/06/2025  21:41:17.648597	-1.949472E-1
03/06/2025  21:41:17.649097	-2.064068E-1
03/06/2025  21:41:17.649597	-2.194352E-1
03/06/2025  21:41:17.650097	-2.195034E-1
03/06/2025  21:41:17.650597	-2.214133E-1
03/06/2025  21:41:17.651097	-2.135008E-1
03/06/2025  21:41:17.651597	-2.198445E-1
03/06/2025  21:41:17.652097	-2.013591E-1
03/06/2025  21:41:17.652597	-1.911956E-1
03/06/2025  21:41:17.653097	-1.793950E-1
03/06/2025  21:41:17.653597	-1.595454E-1
03/06/2025  21:41:17.654097	-1.556573E-1
03/06/2025  21:41:17.654597	-1.298052E-1
03/06/2025  21:41:17.655097	-1.203237E-1
03/06/2025  21:41:17.655597	-1.083185E-1
03/06/2025  21:41:17.656097	-8.560404E-2
03/06/2025  21:41:17.656597	-7.066569E-2
03/06/2025  21:41:17.657097	-5.579557E-2
03/06/2025  21:41:17.657597	-2.578246E-2
03/06/2025  21:41:17.658097	-1.609641E-2
03/06/2025  21:41:17.658597	-1.370901E-2
03/06/2025  21:41:17.659097	-3.750114E-3
03/06/2025  21:41:17.659597	-8.047445E-3
03/06/2025  21:41:17.660097	1.297544E-3
03/06/2025  21:41:17.660597	-6.273944E-3
03/06/2025  21:41:17.661097	-1.405007E-2
03/06/2025  21:41:17.661597	-2.100765E-2
03/06/2025  21:41:17.662097	-1.582357E-2
03/06/2025  21:41:17.662597	-2.926125E-2
03/06/2025  21:41:17.663097	-3.512745E-2
03/06/2025  21:41:17.663597	-5.347637E-2
03/06/2025  21:41:17.664097	-6.861935E-2
03/06/2025  21:41:17.664597	-8.792323E-2
03/06/2025  21:41:17.665097	-9.740464E-2
03/06/2025  21:41:17.665597	-1.207330E-1
03/06/2025  21:41:17.666097	-1.430382E-1
03/06/2025  21:41:17.666597	-1.662301E-1
03/06/2025  21:41:17.667097	-1.903088E-1
03/06/2025  21:41:17.667597	-1.817142E-1
03/06/2025  21:41:17.668097	-1.979485E-1
03/06/2025  21:41:17.668597	-1.924234E-1
03/06/2025  21:41:17.669097	-1.832830E-1
03/06/2025  21:41:17.669597	-2.036783E-1
03/06/2025  21:41:17.670097	-2.109087E-1
03/06/2025  21:41:17.670597	-2.085896E-1
03/06/2025  21:41:17.671097	-1.968572E-1
03/06/2025  21:41:17.671597	-1.843062E-1
03/06/2025  21:41:17.672097	-1.764619E-1
03/06/2025  21:41:17.672597	-1.759162E-1
03/06/2025  21:41:17.673097	-1.392184E-1
03/06/2025  21:41:17.673597	-1.254396E-1
03/06/2025  21:41:17.674097	-9.044706E-2
03/06/2025  21:41:17.674597	-7.393985E-2
03/06/2025  21:41:17.675097	-6.432202E-2
03/06/2025  21:41:17.675597	-4.604131E-2
03/06/2025  21:41:17.676097	-3.444533E-2
03/06/2025  21:41:17.676597	-1.302689E-2
03/06/2025  21:41:17.677097	2.189745E-2
03/06/2025  21:41:17.677597	2.960536E-2
03/06/2025  21:41:17.678097	5.436617E-2
03/06/2025  21:41:17.678597	7.830844E-2
03/06/2025  21:41:17.679097	9.686200E-2
03/06/2025  21:41:17.679597	8.969978E-2
03/06/2025  21:41:17.680097	9.549776E-2
03/06/2025  21:41:17.680597	1.004772E-1
03/06/2025  21:41:17.681097	1.094129E-1
03/06/2025  21:41:17.681597	1.440644E-1
03/06/2025  21:41:17.682097	1.616630E-1
03/06/2025  21:41:17.682597	1.660968E-1
03/06/2025  21:41:17.683097	1.706669E-1
03/06/2025  21:41:17.683597	1.805576E-1
03/06/2025  21:41:17.684097	1.902437E-1
03/06/2025  21:41:17.684597	1.804212E-1
03/06/2025  21:41:17.685097	1.744868E-1
03/06/2025  21:41:17.685597	1.761239E-1
03/06/2025  21:41:17.686097	1.760557E-1
03/06/2025  21:41:17.686597	1.768060E-1
03/06/2025  21:41:17.687097	1.819219E-1
03/06/2025  21:41:17.687597	2.003390E-1
03/06/2025  21:41:17.688097	1.968602E-1
03/06/2025  21:41:17.688597	2.047727E-1
03/06/2025  21:41:17.689097	1.969966E-1
03/06/2025  21:41:17.689597	1.889477E-1
03/06/2025  21:41:17.690097	1.882655E-1
03/06/2025  21:41:17.690597	1.884702E-1
03/06/2025  21:41:17.691097	1.861510E-1
03/06/2025  21:41:17.691597	1.761239E-1
03/06/2025  21:41:17.692097	1.581160E-1
03/06/2025  21:41:17.692597	1.523862E-1
03/06/2025  21:41:17.693097	1.834225E-1
03/06/2025  21:41:17.693597	1.827404E-1
03/06/2025  21:41:17.694097	1.983609E-1
03/06/2025  21:41:17.694597	2.210753E-1
03/06/2025  21:41:17.695097	2.152773E-1
03/06/2025  21:41:17.695597	2.258501E-1
03/06/2025  21:41:17.696097	2.257819E-1
03/06/2025  21:41:17.696597	2.261912E-1
03/06/2025  21:41:17.697097	2.229852E-1
03/06/2025  21:41:17.697597	2.291925E-1
03/06/2025  21:41:17.698097	2.256455E-1
03/06/2025  21:41:17.698597	2.178012E-1
03/06/2025  21:41:17.699097	2.252362E-1
03/06/2025  21:41:17.699597	2.242813E-1
03/06/2025  21:41:17.700097	2.065463E-1
03/06/2025  21:41:17.700597	2.006801E-1
03/06/2025  21:41:17.701097	2.019761E-1
03/06/2025  21:41:17.701597	1.834225E-1
03/06/2025  21:41:17.702097	1.247605E-1
03/06/2025  21:41:17.702597	1.002726E-1
03/06/2025  21:41:17.703097	7.100980E-2
03/06/2025  21:41:17.703597	2.960536E-2
03/06/2025  21:41:17.704097	2.742259E-2
03/06/2025  21:41:17.704597	1.152928E-2
03/06/2025  21:41:17.705097	-3.545480E-3
03/06/2025  21:41:17.705597	-4.604131E-2
03/06/2025  21:41:17.706097	-3.819697E-2
03/06/2025  21:41:17.706597	-5.061148E-2
03/06/2025  21:41:17.707097	-6.432202E-2
03/06/2025  21:41:17.707597	-6.745975E-2
03/06/2025  21:41:17.708097	-7.475839E-2
03/06/2025  21:41:17.708597	-7.980605E-2
03/06/2025  21:41:17.709097	-9.078812E-2
03/06/2025  21:41:17.709597	-1.154125E-1
03/06/2025  21:41:17.710097	-1.144575E-1
03/06/2025  21:41:17.710597	-1.030662E-1
03/06/2025  21:41:17.711097	-1.123430E-1
03/06/2025  21:41:17.711597	-1.021112E-1
03/06/2025  21:41:17.712097	-1.032708E-1
03/06/2025  21:41:17.712597	-8.928746E-2
03/06/2025  21:41:17.713097	-8.212524E-2
03/06/2025  21:41:17.713597	-6.302600E-2
03/06/2025  21:41:17.714097	-4.447244E-2
03/06/2025  21:41:17.714597	-3.526387E-2
03/06/2025  21:41:17.715097	-2.175798E-2
03/06/2025  21:41:17.715597	-1.439112E-2
03/06/2025  21:41:17.716097	4.435278E-3
03/06/2025  21:41:17.716597	2.537624E-2
03/06/2025  21:41:17.717097	3.656294E-2
03/06/2025  21:41:17.717597	4.986420E-2
03/06/2025  21:41:17.718097	7.482965E-2
03/06/2025  21:41:17.718597	7.094159E-2
03/06/2025  21:41:17.719097	8.424285E-2
03/06/2025  21:41:17.719597	8.042300E-2
03/06/2025  21:41:17.720097	6.541645E-2
03/06/2025  21:41:17.720597	5.395690E-2
03/06/2025  21:41:17.721097	5.470723E-2
03/06/2025  21:41:17.721597	5.150128E-2
03/06/2025  21:41:17.722097	3.731327E-2
03/06/2025  21:41:17.722597	1.453059E-2
03/06/2025  21:41:17.723097	1.207498E-2
03/06/2025  21:41:17.723597	-6.273944E-3
03/06/2025  21:41:17.724097	-1.930236E-2
03/06/2025  21:41:17.724597	-3.956120E-2
03/06/2025  21:41:17.725097	-5.231677E-2
03/06/2025  21:41:17.725597	-5.804655E-2
03/06/2025  21:41:17.726097	-6.957431E-2
03/06/2025  21:41:17.726597	-8.533119E-2
03/06/2025  21:41:17.727097	-9.658610E-2
03/06/2025  21:41:17.727597	-1.044986E-1
03/06/2025  21:41:17.728097	-1.181410E-1
03/06/2025  21:41:17.728597	-1.147304E-1
03/06/2025  21:41:17.729097	-1.316469E-1
03/06/2025  21:41:17.729597	-1.405144E-1
03/06/2025  21:41:17.730097	-1.314422E-1
03/06/2025  21:41:17.730597	-1.504051E-1
03/06/2025  21:41:17.731097	-1.453574E-1
03/06/2025  21:41:17.731597	-1.474720E-1
03/06/2025  21:41:17.732097	-1.483587E-1
03/06/2025  21:41:17.732597	-1.267356E-1
03/06/2025  21:41:17.733097	-1.147304E-1
03/06/2025  21:41:17.733597	-1.006788E-1
03/06/2025  21:41:17.734097	-9.760928E-2
03/06/2025  21:41:17.734597	-7.578156E-2
03/06/2025  21:41:17.735097	-6.950610E-2
03/06/2025  21:41:17.735597	-5.443133E-2
03/06/2025  21:41:17.736097	-3.492282E-2
03/06/2025  21:41:17.736597	-1.827919E-2
03/06/2025  21:41:17.737097	-6.751425E-3
03/06/2025  21:41:17.737597	7.504800E-3
03/06/2025  21:41:17.738097	1.091538E-2
03/06/2025  21:41:17.738597	1.862329E-2
03/06/2025  21:41:17.739097	9.346513E-3
03/06/2025  21:41:17.739597	1.596304E-2
03/06/2025  21:41:17.740097	1.425775E-2
03/06/2025  21:41:17.740597	2.946894E-2
03/06/2025  21:41:17.741097	1.889614E-2
03/06/2025  21:41:17.741597	1.453059E-2
03/06/2025  21:41:17.742097	-3.613691E-3
03/06/2025  21:41:17.742597	-1.077591E-2
03/06/2025  21:41:17.743097	-1.991626E-2
03/06/2025  21:41:17.743597	-4.365390E-2
03/06/2025  21:41:17.744097	-7.018821E-2
03/06/2025  21:41:17.744597	-7.557693E-2
03/06/2025  21:41:17.745097	-9.147023E-2
03/06/2025  21:41:17.745597	-1.059311E-1
03/06/2025  21:41:17.746097	-1.229158E-1
03/06/2025  21:41:17.746597	-1.336250E-1
03/06/2025  21:41:17.747097	-1.522468E-1
03/06/2025  21:41:17.747597	-1.705275E-1
03/06/2025  21:41:17.748097	-1.823281E-1
03/06/2025  21:41:17.748597	-1.811003E-1
03/06/2025  21:41:17.749097	-1.824645E-1
03/06/2025  21:41:17.749597	-1.935148E-1
03/06/2025  21:41:17.750097	-1.993810E-1
03/06/2025  21:41:17.750597	-2.028598E-1
03/06/2025  21:41:17.751097	-1.999949E-1
03/06/2025  21:41:17.751597	-1.931055E-1
03/06/2025  21:41:17.752097	-1.822599E-1
03/06/2025  21:41:17.752597	-1.615918E-1
03/06/2025  21:41:17.753097	-1.473355E-1
03/06/2025  21:41:17.753597	-1.409919E-1
03/06/2025  21:41:17.754097	-1.317833E-1
03/06/2025  21:41:17.754597	-1.111152E-1
03/06/2025  21:41:17.755097	-9.876887E-2
03/06/2025  21:41:17.755597	-7.823718E-2
03/06/2025  21:41:17.756097	-4.788302E-2
03/06/2025  21:41:17.756597	-3.717380E-2
03/06/2025  21:41:17.757097	-3.376322E-2
03/06/2025  21:41:17.757597	-2.557783E-2
03/06/2025  21:41:17.758097	-1.343616E-2
03/06/2025  21:41:17.758597	-6.615002E-3
03/06/2025  21:41:17.759097	9.564861E-4
03/06/2025  21:41:17.759597	4.912759E-3
03/06/2025  21:41:17.760097	9.960417E-3
03/06/2025  21:41:17.760597	8.459762E-3
03/06/2025  21:41:17.761097	4.844547E-3
03/06/2025  21:41:17.761597	-2.658729E-3
03/06/2025  21:41:17.762097	3.207469E-3
03/06/2025  21:41:17.762597	-1.234478E-2
03/06/2025  21:41:17.763097	-3.737843E-2
03/06/2025  21:41:17.763597	-4.631415E-2
03/06/2025  21:41:17.764097	-6.943789E-2
03/06/2025  21:41:17.764597	-8.410338E-2
03/06/2025  21:41:17.765097	-1.077046E-1
03/06/2025  21:41:17.765597	-1.192324E-1
03/06/2025  21:41:17.766097	-1.285773E-1
03/06/2025  21:41:17.766597	-1.485633E-1
03/06/2025  21:41:17.767097	-1.669805E-1
03/06/2025  21:41:17.767597	-1.808274E-1
03/06/2025  21:41:17.768097	-1.973346E-1
03/06/2025  21:41:17.768597	-2.028598E-1
03/06/2025  21:41:17.769097	-1.994492E-1
03/06/2025  21:41:17.769597	-2.075664E-1
03/06/2025  21:41:17.770097	-2.017002E-1
03/06/2025  21:41:17.770597	-2.001313E-1
03/06/2025  21:41:17.771097	-2.006770E-1
03/06/2025  21:41:17.771597	-2.064750E-1
03/06/2025  21:41:17.772097	-2.051108E-1
03/06/2025  21:41:17.772597	-1.909227E-1
03/06/2025  21:41:17.773097	-1.599547E-1
03/06/2025  21:41:17.773597	-1.517011E-1
03/06/2025  21:41:17.774097	-1.361488E-1
03/06/2025  21:41:17.774597	-1.184820E-1
03/06/2025  21:41:17.775097	-1.157536E-1
03/06/2025  21:41:17.775597	-9.897351E-2
03/06/2025  21:41:17.776097	-7.284847E-2
03/06/2025  21:41:17.776597	-5.402206E-2
03/06/2025  21:41:17.777097	-4.037974E-2
03/06/2025  21:41:17.777597	-2.209903E-2
03/06/2025  21:41:17.778097	-5.864674E-3
03/06/2025  21:41:17.778597	-5.441691E-4
03/06/2025  21:41:17.779097	1.161121E-3
03/06/2025  21:41:17.779597	1.187034E-2
03/06/2025  21:41:17.780097	1.350742E-2
03/06/2025  21:41:17.780597	1.433967E-3
03/06/2025  21:41:17.781097	1.911448E-3
03/06/2025  21:41:17.781597	-1.193551E-2
03/06/2025  21:41:17.782097	-2.182619E-2
03/06/2025  21:41:17.782597	-2.244009E-2
03/06/2025  21:41:17.783097	-4.174398E-2
03/06/2025  21:41:17.783597	-4.931546E-2
03/06/2025  21:41:17.784097	-6.439023E-2
03/06/2025  21:41:17.784597	-8.001068E-2
03/06/2025  21:41:17.785097	-9.992847E-2
03/06/2025  21:41:17.785597	-1.083185E-1
03/06/2025  21:41:17.786097	-1.295323E-1
03/06/2025  21:41:17.786597	-1.343071E-1
03/06/2025  21:41:17.787097	-1.606368E-1
03/06/2025  21:41:17.787597	-1.656845E-1
03/06/2025  21:41:17.788097	-1.879896E-1
03/06/2025  21:41:17.788597	-1.913320E-1
03/06/2025  21:41:17.789097	-1.976757E-1
03/06/2025  21:41:17.789597	-2.047697E-1
03/06/2025  21:41:17.790097	-2.045651E-1
03/06/2025  21:41:17.790597	-1.977439E-1
03/06/2025  21:41:17.791097	-1.933784E-1
03/06/2025  21:41:17.791597	-1.906499E-1
03/06/2025  21:41:17.792097	-1.901724E-1
03/06/2025  21:41:17.792597	-1.672533E-1
03/06/2025  21:41:17.793097	-1.602275E-1
03/06/2025  21:41:17.793597	-1.460395E-1
03/06/2025  21:41:17.794097	-1.228476E-1
03/06/2025  21:41:17.794597	-1.056582E-1
03/06/2025  21:41:17.795097	-8.792323E-2
03/06/2025  21:41:17.795597	-7.182529E-2
03/06/2025  21:41:17.796097	-4.952010E-2
03/06/2025  21:41:17.796597	-3.997047E-2
03/06/2025  21:41:17.797097	-3.894730E-2
03/06/2025  21:41:17.797597	-7.092483E-3
03/06/2025  21:41:17.798097	6.973527E-5
03/06/2025  21:41:17.798597	-4.841500E-3
03/06/2025  21:41:17.799097	5.731298E-3
03/06/2025  21:41:17.799597	1.569019E-2
03/06/2025  21:41:17.800097	1.146107E-2
03/06/2025  21:41:17.800597	1.412132E-2
03/06/2025  21:41:17.801097	5.049182E-3
03/06/2025  21:41:17.801597	1.364384E-2
03/06/2025  21:41:17.802097	1.570390E-3
03/06/2025  21:41:17.802597	-5.455404E-3
03/06/2025  21:41:17.803097	-2.803344E-2
03/06/2025  21:41:17.803597	-4.924725E-2
03/06/2025  21:41:17.804097	-6.602731E-2
03/06/2025  21:41:17.804597	-6.971073E-2
03/06/2025  21:41:17.805097	-9.283446E-2
03/06/2025  21:41:17.805597	-1.135708E-1
03/06/2025  21:41:17.806097	-1.200509E-1
03/06/2025  21:41:17.806597	-1.325336E-1
03/06/2025  21:41:17.807097	-1.497912E-1
03/06/2025  21:41:17.807597	-1.592726E-1
03/06/2025  21:41:17.808097	-1.676626E-1
03/06/2025  21:41:17.808597	-1.782354E-1
03/06/2025  21:41:17.809097	-1.948790E-1
03/06/2025  21:41:17.809597	-2.036101E-1
03/06/2025  21:41:17.810097	-1.883989E-1
03/06/2025  21:41:17.810597	-1.932419E-1
03/06/2025  21:41:17.811097	-1.937194E-1
03/06/2025  21:41:17.811597	-1.816460E-1
03/06/2025  21:41:17.812097	-1.735970E-1
03/06/2025  21:41:17.812597	-1.680036E-1
03/06/2025  21:41:17.813097	-1.480859E-1
03/06/2025  21:41:17.813597	-1.209376E-1
03/06/2025  21:41:17.814097	-1.126840E-1
03/06/2025  21:41:17.814597	-8.894640E-2
03/06/2025  21:41:17.815097	-7.496303E-2
03/06/2025  21:41:17.815597	-6.254851E-2
03/06/2025  21:41:17.816097	-4.488171E-2
03/06/2025  21:41:17.816597	-3.376322E-2
03/06/2025  21:41:17.817097	-2.298579E-2
03/06/2025  21:41:17.817597	-3.886538E-3
03/06/2025  21:41:17.818097	-5.250770E-3
03/06/2025  21:41:17.818597	1.446238E-2
03/06/2025  21:41:17.819097	2.489876E-2
03/06/2025  21:41:17.819597	2.169281E-2
03/06/2025  21:41:17.820097	2.926430E-2
03/06/2025  21:41:17.820597	2.810470E-2
03/06/2025  21:41:17.821097	2.155639E-2
03/06/2025  21:41:17.821597	1.732727E-2
03/06/2025  21:41:17.822097	2.073785E-2
03/06/2025  21:41:17.822597	1.391669E-2
03/06/2025  21:41:17.823097	-4.022961E-3
03/06/2025  21:41:17.823597	-2.728312E-2
03/06/2025  21:41:17.824097	-3.546851E-2
03/06/2025  21:41:17.824597	-5.606841E-2
03/06/2025  21:41:17.825097	-6.268494E-2
03/06/2025  21:41:17.825597	-8.308021E-2
03/06/2025  21:41:17.826097	-9.658610E-2
03/06/2025  21:41:17.826597	-1.176635E-1
03/06/2025  21:41:17.827097	-1.285773E-1
03/06/2025  21:41:17.827597	-1.450846E-1
03/06/2025  21:41:17.828097	-1.512236E-1
03/06/2025  21:41:17.828597	-1.605004E-1
03/06/2025  21:41:17.829097	-1.656845E-1
03/06/2025  21:41:17.829597	-1.822599E-1
03/06/2025  21:41:17.830097	-1.755751E-1
03/06/2025  21:41:17.830597	-1.853294E-1
03/06/2025  21:41:17.831097	-1.816460E-1
03/06/2025  21:41:17.831597	-1.714142E-1
03/06/2025  21:41:17.832097	-1.609096E-1
03/06/2025  21:41:17.832597	-1.438567E-1
03/06/2025  21:41:17.833097	-1.246211E-1
03/06/2025  21:41:17.833597	-1.186867E-1
03/06/2025  21:41:17.834097	-1.078410E-1
03/06/2025  21:41:17.834597	-7.748685E-2
03/06/2025  21:41:17.835097	-6.889219E-2
03/06/2025  21:41:17.835597	-6.336705E-2
03/06/2025  21:41:17.836097	-3.048906E-2
03/06/2025  21:41:17.836597	-2.625994E-2
03/06/2025  21:41:17.837097	-2.863364E-3
03/06/2025  21:41:17.837597	1.323457E-2
03/06/2025  21:41:17.838097	1.057432E-2
03/06/2025  21:41:17.838597	2.298883E-2
03/06/2025  21:41:17.839097	4.631720E-2
03/06/2025  21:41:17.839597	4.740859E-2
03/06/2025  21:41:17.840097	4.461191E-2
03/06/2025  21:41:17.840597	4.433906E-2
03/06/2025  21:41:17.841097	3.840465E-2
03/06/2025  21:41:17.841597	2.367095E-2
03/06/2025  21:41:17.842097	2.612657E-2
03/06/2025  21:41:17.842597	3.035569E-2
03/06/2025  21:41:17.843097	9.346513E-3
03/06/2025  21:41:17.843597	-1.214014E-2
03/06/2025  21:41:17.844097	-2.701027E-2
03/06/2025  21:41:17.844597	-4.549561E-2
03/06/2025  21:41:17.845097	-7.052927E-2
03/06/2025  21:41:17.845597	-7.810076E-2
03/06/2025  21:41:17.846097	-6.868756E-2
03/06/2025  21:41:17.846597	-9.917814E-2
03/06/2025  21:41:17.847097	-1.133662E-1
03/06/2025  21:41:17.847597	-1.263264E-1
03/06/2025  21:41:17.848097	-1.328747E-1
03/06/2025  21:41:17.848597	-1.335568E-1
03/06/2025  21:41:17.849097	-1.518375E-1
03/06/2025  21:41:17.849597	-1.512236E-1
03/06/2025  21:41:17.850097	-1.384680E-1
03/06/2025  21:41:17.850597	-1.403780E-1
03/06/2025  21:41:17.851097	-1.396958E-1
03/06/2025  21:41:17.851597	-1.465852E-1
03/06/2025  21:41:17.852097	-1.253032E-1
03/06/2025  21:41:17.852597	-1.134344E-1
03/06/2025  21:41:17.853097	-1.084549E-1
03/06/2025  21:41:17.853597	-8.451265E-2
03/06/2025  21:41:17.854097	-5.879688E-2
03/06/2025  21:41:17.854597	-4.958831E-2
03/06/2025  21:41:17.855097	-4.058438E-2
03/06/2025  21:41:17.855597	-3.499103E-2
03/06/2025  21:41:17.856097	-1.998448E-2
03/06/2025  21:41:17.856597	7.709435E-3
03/06/2025  21:41:17.857097	2.926430E-2
03/06/2025  21:41:17.857597	3.267488E-2
03/06/2025  21:41:17.858097	4.256556E-2
03/06/2025  21:41:17.858597	5.613967E-2
03/06/2025  21:41:17.859097	6.091448E-2
03/06/2025  21:41:17.859597	6.643962E-2
03/06/2025  21:41:17.860097	6.343831E-2
03/06/2025  21:41:17.860597	6.691710E-2
03/06/2025  21:41:17.861097	5.866350E-2
03/06/2025  21:41:17.861597	5.689000E-2
03/06/2025  21:41:17.862097	4.918209E-2
03/06/2025  21:41:17.862597	4.106491E-2
03/06/2025  21:41:17.863097	3.076496E-2
03/06/2025  21:41:17.863597	1.555377E-2
03/06/2025  21:41:17.864097	2.510339E-2
03/06/2025  21:41:17.864597	-1.657390E-2
03/06/2025  21:41:17.865097	-2.230367E-2
03/06/2025  21:41:17.865597	-3.853803E-2
03/06/2025  21:41:17.866097	-6.036574E-2
03/06/2025  21:41:17.866597	-7.987426E-2
03/06/2025  21:41:17.867097	-7.810076E-2
03/06/2025  21:41:17.867597	-9.447154E-2
03/06/2025  21:41:17.868097	-9.556293E-2
03/06/2025  21:41:17.868597	-1.049079E-1
03/06/2025  21:41:17.869097	-1.193006E-1
03/06/2025  21:41:17.869597	-1.330793E-1
03/06/2025  21:41:17.870097	-1.255760E-1
03/06/2025  21:41:17.870597	-1.199827E-1
03/06/2025  21:41:17.871097	-1.173224E-1
03/06/2025  21:41:17.871597	-1.042258E-1
03/06/2025  21:41:17.872097	-9.406227E-2
03/06/2025  21:41:17.872597	-9.488081E-2
03/06/2025  21:41:17.873097	-7.339416E-2
03/06/2025  21:41:17.873597	-5.654589E-2
03/06/2025  21:41:17.874097	-4.304000E-2
03/06/2025  21:41:17.874597	-2.503213E-2
03/06/2025  21:41:17.875097	-1.459576E-2
03/06/2025  21:41:17.875597	7.914069E-3
03/06/2025  21:41:17.876097	1.425775E-2
03/06/2025  21:41:17.876597	4.017816E-2
03/06/2025  21:41:17.877097	7.155549E-2
03/06/2025  21:41:17.877597	8.226471E-2
03/06/2025  21:41:17.878097	9.577061E-2
03/06/2025  21:41:17.878597	1.017732E-1
03/06/2025  21:41:17.879097	1.197129E-1
03/06/2025  21:41:17.879597	1.150745E-1
03/06/2025  21:41:17.880097	1.003408E-1
03/06/2025  21:41:17.880597	1.050474E-1
03/06/2025  21:41:17.881097	9.802159E-2
03/06/2025  21:41:17.881597	9.495207E-2
03/06/2025  21:41:17.882097	8.383358E-2
03/06/2025  21:41:17.882597	8.819912E-2
03/06/2025  21:41:17.883097	7.332899E-2
03/06/2025  21:41:17.883597	5.266088E-2
03/06/2025  21:41:17.884097	5.375226E-2
03/06/2025  21:41:17.884597	3.015105E-2
03/06/2025  21:41:17.885097	1.200677E-2
03/06/2025  21:41:17.885597	-4.432230E-3
03/06/2025  21:41:17.886097	-1.302689E-2
03/06/2025  21:41:17.886597	-3.280826E-2
03/06/2025  21:41:17.887097	-5.020221E-2
03/06/2025  21:41:17.887597	-6.036574E-2
03/06/2025  21:41:17.888097	-6.902862E-2
03/06/2025  21:41:17.888597	-7.373522E-2
03/06/2025  21:41:17.889097	-7.803255E-2
03/06/2025  21:41:17.889597	-8.035174E-2
03/06/2025  21:41:17.890097	-8.635436E-2
03/06/2025  21:41:17.890597	-6.752796E-2
03/06/2025  21:41:17.891097	-6.875577E-2
03/06/2025  21:41:17.891597	-5.831939E-2
03/06/2025  21:41:17.892097	-5.388564E-2
03/06/2025  21:41:17.892597	-4.651879E-2
03/06/2025  21:41:17.893097	-3.403607E-2
03/06/2025  21:41:17.893597	-2.441823E-2
03/06/2025  21:41:17.894097	1.146107E-2
03/06/2025  21:41:17.894597	3.710863E-2
03/06/2025  21:41:17.895097	4.297483E-2
03/06/2025  21:41:17.895597	6.302904E-2
03/06/2025  21:41:17.896097	7.578461E-2
03/06/2025  21:41:17.896597	8.833555E-2
03/06/2025  21:41:17.897097	1.098222E-1
03/06/2025  21:41:17.897597	1.267387E-1
03/06/2025  21:41:17.898097	1.353333E-1
03/06/2025  21:41:17.898597	1.499306E-1
03/06/2025  21:41:17.899097	1.577067E-1
03/06/2025  21:41:17.899597	1.708716E-1
03/06/2025  21:41:17.900097	1.650054E-1
03/06/2025  21:41:17.900597	1.507492E-1
03/06/2025  21:41:17.901097	1.691663E-1
03/06/2025  21:41:17.901597	1.588663E-1
03/06/2025  21:41:17.902097	1.581842E-1
03/06/2025  21:41:17.902597	1.487710E-1
03/06/2025  21:41:17.903097	1.374479E-1
03/06/2025  21:41:17.903597	1.158930E-1
03/06/2025  21:41:17.904097	9.099580E-2
03/06/2025  21:41:17.904597	8.854018E-2
03/06/2025  21:41:17.905097	7.871771E-2
03/06/2025  21:41:17.905597	8.110512E-2
03/06/2025  21:41:17.906097	4.740859E-2
03/06/2025  21:41:17.906597	3.199276E-2
03/06/2025  21:41:17.907097	2.257956E-2
03/06/2025  21:41:17.907597	5.731298E-3
03/06/2025  21:41:17.908097	-8.852271E-4
03/06/2025  21:41:17.908597	-1.077591E-2
03/06/2025  21:41:17.909097	-7.979234E-3
03/06/2025  21:41:17.909597	-1.698316E-2
03/06/2025  21:41:17.910097	-6.615002E-3
03/06/2025  21:41:17.910597	-1.009379E-2
03/06/2025  21:41:17.911097	-6.887848E-3
03/06/2025  21:41:17.911597	-7.488039E-4
03/06/2025  21:41:17.912097	1.405311E-2
03/06/2025  21:41:17.912597	2.885503E-2
03/06/2025  21:41:17.913097	3.935962E-2
03/06/2025  21:41:17.913597	4.461191E-2
03/06/2025  21:41:17.914097	7.155549E-2
03/06/2025  21:41:17.914597	8.253756E-2
03/06/2025  21:41:17.915097	1.042288E-1
03/06/2025  21:41:17.915597	1.266705E-1
03/06/2025  21:41:17.916097	1.436552E-1
03/06/2025  21:41:17.916597	1.702577E-1
03/06/2025  21:41:17.917097	1.799437E-1
03/06/2025  21:41:17.917597	1.824676E-1
03/06/2025  21:41:17.918097	2.004754E-1
03/06/2025  21:41:17.918597	2.006801E-1
03/06/2025  21:41:17.919097	2.247587E-1
03/06/2025  21:41:17.919597	2.340355E-1
03/06/2025  21:41:17.920097	2.385375E-1
03/06/2025  21:41:17.920597	2.361501E-1
03/06/2025  21:41:17.921097	2.414706E-1
03/06/2025  21:41:17.921597	2.126171E-1
03/06/2025  21:41:17.922097	2.181422E-1
03/06/2025  21:41:17.922597	2.046363E-1
03/06/2025  21:41:17.923097	1.832861E-1
03/06/2025  21:41:17.923597	1.789888E-1
03/06/2025  21:41:17.924097	1.622087E-1
03/06/2025  21:41:17.924597	1.439962E-1
03/06/2025  21:41:17.925097	1.418817E-1
03/06/2025  21:41:17.925597	1.288532E-1
03/06/2025  21:41:17.926097	1.178712E-1
03/06/2025  21:41:17.926597	1.025918E-1
03/06/2025  21:41:17.927097	9.154149E-2
03/06/2025  21:41:17.927597	7.755811E-2
03/06/2025  21:41:17.928097	6.227872E-2
03/06/2025  21:41:17.928597	5.382048E-2
03/06/2025  21:41:17.929097	6.794028E-2
03/06/2025  21:41:17.929597	5.095559E-2
03/06/2025  21:41:17.930097	4.317947E-2
03/06/2025  21:41:17.930597	4.884103E-2
03/06/2025  21:41:17.931097	7.578461E-2
03/06/2025  21:41:17.931597	7.612567E-2
03/06/2025  21:41:17.932097	7.742169E-2
03/06/2025  21:41:17.932597	8.171902E-2
03/06/2025  21:41:17.933097	1.036149E-1
03/06/2025  21:41:17.933597	1.162341E-1
03/06/2025  21:41:17.934097	1.355380E-1
03/06/2025  21:41:17.934597	1.554558E-1
03/06/2025  21:41:17.935097	1.637094E-1
03/06/2025  21:41:17.935597	1.781702E-1
03/06/2025  21:41:17.936097	2.029310E-1
03/06/2025  21:41:17.936597	2.214164E-1
03/06/2025  21:41:17.937097	2.377872E-1
03/06/2025  21:41:17.937597	2.394242E-1
03/06/2025  21:41:17.938097	2.546354E-1
03/06/2025  21:41:17.938597	2.606380E-1
03/06/2025  21:41:17.939097	2.803512E-1
03/06/2025  21:41:17.939597	2.828068E-1
03/06/2025  21:41:17.940097	2.749625E-1
03/06/2025  21:41:17.940597	2.806240E-1
03/06/2025  21:41:17.941097	2.828068E-1
03/06/2025  21:41:17.941597	2.775545E-1
03/06/2025  21:41:17.942097	2.579778E-1
03/06/2025  21:41:17.942597	2.439944E-1
03/06/2025  21:41:17.943097	2.405156E-1
03/06/2025  21:41:17.943597	2.332170E-1
03/06/2025  21:41:17.944097	2.117303E-1
03/06/2025  21:41:17.944597	1.876516E-1
03/06/2025  21:41:17.945097	1.705305E-1
03/06/2025  21:41:17.945597	1.640504E-1
03/06/2025  21:41:17.946097	1.536140E-1
03/06/2025  21:41:17.946597	1.365611E-1
03/06/2025  21:41:17.947097	1.223049E-1
03/06/2025  21:41:17.947597	1.195765E-1
03/06/2025  21:41:17.948097	1.105725E-1
03/06/2025  21:41:17.948597	1.047063E-1
03/06/2025  21:41:17.949097	9.031368E-2
03/06/2025  21:41:17.949597	7.960446E-2
03/06/2025  21:41:17.950097	7.980910E-2
03/06/2025  21:41:17.950597	8.553887E-2
03/06/2025  21:41:17.951097	9.890834E-2
03/06/2025  21:41:17.951597	1.071619E-1
03/06/2025  21:41:17.952097	1.032739E-1
03/06/2025  21:41:17.952597	1.072984E-1
03/06/2025  21:41:17.953097	1.338327E-1
03/06/2025  21:41:17.953597	1.479525E-1
03/06/2025  21:41:17.954097	1.556604E-1
03/06/2025  21:41:17.954597	1.679385E-1
03/06/2025  21:41:17.955097	1.759875E-1
03/06/2025  21:41:17.955597	2.005436E-1
03/06/2025  21:41:17.956097	2.132310E-1
03/06/2025  21:41:17.956597	2.382646E-1
03/06/2025  21:41:17.957097	2.386739E-1
03/06/2025  21:41:17.957597	2.581824E-1
03/06/2025  21:41:17.958097	2.718930E-1
03/06/2025  21:41:17.958597	2.824658E-1
03/06/2025  21:41:17.959097	2.763949E-1
03/06/2025  21:41:17.959597	2.818519E-1
03/06/2025  21:41:17.960097	2.835571E-1
03/06/2025  21:41:17.960597	2.914015E-1
03/06/2025  21:41:17.961097	2.794645E-1
03/06/2025  21:41:17.961597	2.720976E-1
03/06/2025  21:41:17.962097	2.643897E-1
03/06/2025  21:41:17.962597	2.518388E-1
03/06/2025  21:41:17.963097	2.296018E-1
03/06/2025  21:41:17.963597	2.252362E-1
03/06/2025  21:41:17.964097	2.036814E-1
03/06/2025  21:41:17.964597	1.806941E-1
03/06/2025  21:41:17.965097	1.674610E-1
03/06/2025  21:41:17.965597	1.677338E-1
03/06/2025  21:41:17.966097	1.357426E-1
03/06/2025  21:41:17.966597	1.161659E-1
03/06/2025  21:41:17.967097	9.195076E-2
03/06/2025  21:41:17.967597	7.667136E-2
03/06/2025  21:41:17.968097	7.251046E-2
03/06/2025  21:41:17.968597	5.716284E-2
03/06/2025  21:41:17.969097	5.116022E-2
03/06/2025  21:41:17.969597	4.413443E-2
03/06/2025  21:41:17.970097	5.266088E-2
03/06/2025  21:41:17.970597	4.386158E-2
03/06/2025  21:41:17.971097	5.225161E-2
03/06/2025  21:41:17.971597	5.491186E-2
03/06/2025  21:41:17.972097	5.211519E-2
03/06/2025  21:41:17.972597	5.736748E-2
03/06/2025  21:41:17.973097	7.851308E-2
03/06/2025  21:41:17.973597	9.297394E-2
03/06/2025  21:41:17.974097	9.795338E-2
03/06/2025  21:41:17.974597	1.155520E-1
03/06/2025  21:41:17.975097	1.142560E-1
03/06/2025  21:41:17.975597	1.366976E-1
03/06/2025  21:41:17.976097	1.507492E-1
03/06/2025  21:41:17.976597	1.704623E-1
03/06/2025  21:41:17.977097	1.810351E-1
03/06/2025  21:41:17.977597	1.955642E-1
03/06/2025  21:41:17.978097	1.892205E-1
03/06/2025  21:41:17.978597	2.010893E-1
03/06/2025  21:41:17.979097	2.068191E-1
03/06/2025  21:41:17.979597	2.156866E-1
03/06/2025  21:41:17.980097	2.041588E-1
03/06/2025  21:41:17.980597	1.989066E-1
03/06/2025  21:41:17.981097	1.873788E-1
03/06/2025  21:41:17.981597	1.766696E-1
03/06/2025  21:41:17.982097	1.609127E-1
03/06/2025  21:41:17.982597	1.426320E-1
03/06/2025  21:41:17.983097	1.302175E-1
03/06/2025  21:41:17.983597	1.188943E-1
03/06/2025  21:41:17.984097	1.057295E-1
03/06/2025  21:41:17.984597	8.390179E-2
03/06/2025  21:41:17.985097	6.575751E-2
03/06/2025  21:41:17.985597	5.395690E-2
03/06/2025  21:41:17.986097	2.653584E-2
03/06/2025  21:41:17.986597	1.638602E-3
03/06/2025  21:41:17.987097	-1.036664E-2
03/06/2025  21:41:17.987597	-1.780170E-2
03/06/2025  21:41:17.988097	-3.526387E-2
03/06/2025  21:41:17.988597	-3.874267E-2
03/06/2025  21:41:17.989097	-5.947899E-2
03/06/2025  21:41:17.989597	-6.718690E-2
03/06/2025  21:41:17.990097	-5.183929E-2
03/06/2025  21:41:17.990597	-5.811476E-2
03/06/2025  21:41:17.991097	-6.896040E-2
03/06/2025  21:41:17.991597	-5.982005E-2
03/06/2025  21:41:17.992097	-6.091144E-2
03/06/2025  21:41:17.992597	-5.279426E-2
03/06/2025  21:41:17.993097	-2.237188E-2
03/06/2025  21:41:17.993597	-1.971163E-2
03/06/2025  21:41:17.994097	-1.677853E-2
03/06/2025  21:41:17.994597	-3.395343E-4
03/06/2025  21:41:17.995097	9.687571E-3
03/06/2025  21:41:17.995597	1.125644E-2
03/06/2025  21:41:17.996097	3.547156E-2
03/06/2025  21:41:17.996597	4.918209E-2
03/06/2025  21:41:17.997097	5.443438E-2
03/06/2025  21:41:17.997597	6.889524E-2
03/06/2025  21:41:17.998097	8.335610E-2
03/06/2025  21:41:17.998597	8.055942E-2
03/06/2025  21:41:17.999097	8.601635E-2
03/06/2025  21:41:17.999597	8.894945E-2
03/06/2025  21:41:18.000097	9.522492E-2
03/06/2025  21:41:18.000597	8.178723E-2
03/06/2025  21:41:18.001097	7.523892E-2
03/06/2025  21:41:18.001597	6.732637E-2
03/06/2025  21:41:18.002097	5.613967E-2
03/06/2025  21:41:18.002597	4.570330E-2
03/06/2025  21:41:18.003097	2.858218E-2
03/06/2025  21:41:18.003597	2.360274E-2
03/06/2025  21:41:18.004097	-8.593138E-3
03/06/2025  21:41:18.004597	-2.980695E-2
03/06/2025  21:41:18.005097	-3.478639E-2
03/06/2025  21:41:18.005597	-5.238499E-2
03/06/2025  21:41:18.006097	-6.868756E-2
03/06/2025  21:41:18.006597	-9.760928E-2
03/06/2025  21:41:18.007097	-1.229840E-1
03/06/2025  21:41:18.007597	-1.169814E-1
03/06/2025  21:41:18.008097	-1.311012E-1
03/06/2025  21:41:18.008597	-1.439250E-1
03/06/2025  21:41:18.009097	-1.439932E-1
03/06/2025  21:41:18.009597	-1.650023E-1
03/06/2025  21:41:18.010097	-1.609779E-1
03/06/2025  21:41:18.010597	-1.519057E-1
03/06/2025  21:41:18.011097	-1.679354E-1
03/06/2025  21:41:18.011597	-1.515647E-1
03/06/2025  21:41:18.012097	-1.567487E-1
03/06/2025  21:41:18.012597	-1.324654E-1
03/06/2025  21:41:18.013097	-1.248939E-1
03/06/2025  21:41:18.013597	-1.006788E-1
03/06/2025  21:41:18.014097	-9.460797E-2
03/06/2025  21:41:18.014597	-7.775970E-2
03/06/2025  21:41:18.015097	-7.278025E-2
03/06/2025  21:41:18.015597	-5.361279E-2
03/06/2025  21:41:18.016097	-4.392675E-2
03/06/2025  21:41:18.016597	-3.021622E-2
03/06/2025  21:41:18.017097	-1.282226E-2
03/06/2025  21:41:18.017597	-6.668793E-5
03/06/2025  21:41:18.018097	1.753191E-2
03/06/2025  21:41:18.018597	1.534913E-2
03/06/2025  21:41:18.019097	1.350742E-2
03/06/2025  21:41:18.019597	9.346513E-3
03/06/2025  21:41:18.020097	2.408022E-2
03/06/2025  21:41:18.020597	1.719085E-2
03/06/2025  21:41:18.021097	1.875971E-2
03/06/2025  21:41:18.021597	8.664397E-3
03/06/2025  21:41:18.022097	-7.228906E-3
03/06/2025  21:41:18.022597	-1.868845E-2
03/06/2025  21:41:18.023097	-3.021622E-2
03/06/2025  21:41:18.023597	-4.058438E-2
03/06/2025  21:41:18.024097	-5.511345E-2
03/06/2025  21:41:18.024597	-7.503124E-2
03/06/2025  21:41:18.025097	-8.976494E-2
03/06/2025  21:41:18.025597	-1.173906E-1
03/06/2025  21:41:18.026097	-1.290548E-1
03/06/2025  21:41:18.026597	-1.329429E-1
03/06/2025  21:41:18.027097	-1.417422E-1
03/06/2025  21:41:18.027597	-1.502686E-1
03/06/2025  21:41:18.028097	-1.712778E-1
03/06/2025  21:41:18.028597	-1.803499E-1
03/06/2025  21:41:18.029097	-1.818506E-1
03/06/2025  21:41:18.029597	-1.901042E-1
03/06/2025  21:41:18.030097	-2.010181E-1
03/06/2025  21:41:18.030597	-1.914684E-1
03/06/2025  21:41:18.031097	-1.928327E-1
03/06/2025  21:41:18.031597	-1.870347E-1
03/06/2025  21:41:18.032097	-1.874440E-1
03/06/2025  21:41:18.032597	-1.780990E-1
03/06/2025  21:41:18.033097	-1.521103E-1
03/06/2025  21:41:18.033597	-1.360124E-1
03/06/2025  21:41:18.034097	-1.252350E-1
03/06/2025  21:41:18.034597	-9.945099E-2
03/06/2025  21:41:18.035097	-8.383053E-2
03/06/2025  21:41:18.035597	-6.998358E-2
03/06/2025  21:41:18.036097	-5.845582E-2
03/06/2025  21:41:18.036597	-4.822408E-2
03/06/2025  21:41:18.037097	-4.092544E-2
03/06/2025  21:41:18.037597	-2.196261E-2
03/06/2025  21:41:18.038097	-1.350437E-2
03/06/2025  21:41:18.038597	-1.089862E-3
03/06/2025  21:41:18.039097	4.107933E-4
03/06/2025  21:41:18.039597	9.414725E-3
03/06/2025  21:41:18.040097	1.036969E-2
03/06/2025  21:41:18.040597	-2.658729E-3
03/06/2025  21:41:18.041097	1.775025E-3
03/06/2025  21:41:18.041597	-2.931575E-3
03/06/2025  21:41:18.042097	-1.254941E-2
03/06/2025  21:41:18.042597	-4.228967E-2
03/06/2025  21:41:18.043097	-4.761017E-2
03/06/2025  21:41:18.043597	-7.250741E-2
03/06/2025  21:41:18.044097	-6.861935E-2
03/06/2025  21:41:18.044597	-7.987426E-2
03/06/2025  21:41:18.045097	-9.563114E-2
03/06/2025  21:41:18.045597	-1.038165E-1
03/06/2025  21:41:18.046097	-1.377859E-1
03/06/2025  21:41:18.046597	-1.564077E-1
03/06/2025  21:41:18.047097	-1.694361E-1
03/06/2025  21:41:18.047597	-1.768029E-1
03/06/2025  21:41:18.048097	-1.961068E-1
03/06/2025  21:41:18.048597	-1.952201E-1
03/06/2025  21:41:18.049097	-1.995174E-1
03/06/2025  21:41:18.049597	-2.052472E-1
03/06/2025  21:41:18.050097	-2.078392E-1
03/06/2025  21:41:18.050597	-1.973346E-1
03/06/2025  21:41:18.051097	-1.912638E-1
03/06/2025  21:41:18.051597	-1.948790E-1
03/06/2025  21:41:18.052097	-1.812367E-1
03/06/2025  21:41:18.052597	-1.632970E-1
03/06/2025  21:41:18.053097	-1.519739E-1
03/06/2025  21:41:18.053597	-1.461759E-1
03/06/2025  21:41:18.054097	-1.329429E-1
03/06/2025  21:41:18.054597	-9.910993E-2
03/06/2025  21:41:18.055097	-1.012927E-1
03/06/2025  21:41:18.055597	-8.055638E-2
03/06/2025  21:41:18.056097	-6.398096E-2
03/06/2025  21:41:18.056597	-4.767839E-2
03/06/2025  21:41:18.057097	-3.355858E-2
03/06/2025  21:41:18.057597	-2.578246E-2
03/06/2025  21:41:18.058097	-5.318981E-3
03/06/2025  21:41:18.058597	2.457141E-3
03/06/2025  21:41:18.059097	1.418954E-2
03/06/2025  21:41:18.059597	4.912759E-3
03/06/2025  21:41:18.060097	8.323339E-3
03/06/2025  21:41:18.060597	-6.342155E-3
03/06/2025  21:41:18.061097	-1.138981E-2
03/06/2025  21:41:18.061597	-1.527787E-2
03/06/2025  21:41:18.062097	-2.796523E-2
03/06/2025  21:41:18.062597	-3.737843E-2
03/06/2025  21:41:18.063097	-4.549561E-2
03/06/2025  21:41:18.063597	-5.388564E-2
03/06/2025  21:41:18.064097	-6.759617E-2
03/06/2025  21:41:18.064597	-9.181129E-2
03/06/2025  21:41:18.065097	-1.076364E-1
03/06/2025  21:41:18.065597	-1.146622E-1
03/06/2025  21:41:18.066097	-1.284409E-1
03/06/2025  21:41:18.066597	-1.522468E-1
03/06/2025  21:41:18.067097	-1.648659E-1
03/06/2025  21:41:18.067597	-1.833513E-1
03/06/2025  21:41:18.068097	-1.818506E-1
03/06/2025  21:41:18.068597	-1.820552E-1
03/06/2025  21:41:18.069097	-2.036783E-1
03/06/2025  21:41:18.069597	-2.044286E-1
03/06/2025  21:41:18.070097	-2.014273E-1
03/06/2025  21:41:18.070597	-1.858069E-1
03/06/2025  21:41:18.071097	-1.935148E-1
03/06/2025  21:41:18.071597	-1.797360E-1
03/06/2025  21:41:18.072097	-1.783718E-1
03/06/2025  21:41:18.072597	-1.799407E-1
03/06/2025  21:41:18.073097	-1.506097E-1
03/06/2025  21:41:18.073597	-1.517011E-1
03/06/2025  21:41:18.074097	-1.306237E-1
03/06/2025  21:41:18.074597	-1.088642E-1
03/06/2025  21:41:18.075097	-1.004060E-1
03/06/2025  21:41:18.075597	-8.076101E-2
03/06/2025  21:41:18.076097	-7.114318E-2
03/06/2025  21:41:18.076597	-4.597310E-2
03/06/2025  21:41:18.077097	-3.771949E-2
03/06/2025  21:41:18.077597	-1.207193E-2
03/06/2025  21:41:18.078097	-2.312221E-2
03/06/2025  21:41:18.078597	3.412104E-3
03/06/2025  21:41:18.079097	8.459762E-3
03/06/2025  21:41:18.079597	1.364384E-2
03/06/2025  21:41:18.080097	2.578551E-2
03/06/2025  21:41:18.080597	1.384848E-2
03/06/2025  21:41:18.081097	2.047872E-3
03/06/2025  21:41:18.081597	-8.170155E-4
03/06/2025  21:41:18.082097	-5.523616E-3
03/06/2025  21:41:18.082597	-1.882488E-2
03/06/2025  21:41:18.083097	-2.414538E-2
03/06/2025  21:41:18.083597	-5.320352E-2
03/06/2025  21:41:18.084097	-7.264383E-2
03/06/2025  21:41:18.084597	-7.052927E-2
03/06/2025  21:41:18.085097	-8.915104E-2
03/06/2025  21:41:18.085597	-1.059311E-1
03/06/2025  21:41:18.086097	-1.270767E-1
03/06/2025  21:41:18.086597	-1.454938E-1
03/06/2025  21:41:18.087097	-1.564759E-1
03/06/2025  21:41:18.087597	-1.652070E-1
03/06/2025  21:41:18.088097	-1.783036E-1
03/06/2025  21:41:18.088597	-1.905817E-1
03/06/2025  21:41:18.089097	-1.859433E-1
03/06/2025  21:41:18.089597	-1.986989E-1
03/06/2025  21:41:18.090097	-2.017002E-1
03/06/2025  21:41:18.090597	-1.912638E-1
03/06/2025  21:41:18.091097	-1.732559E-1
03/06/2025  21:41:18.091597	-1.864890E-1
03/06/2025  21:41:18.092097	-1.775533E-1
03/06/2025  21:41:18.092597	-1.650023E-1
03/06/2025  21:41:18.093097	-1.491772E-1
03/06/2025  21:41:18.093597	-1.414693E-1
03/06/2025  21:41:18.094097	-1.265310E-1
03/06/2025  21:41:18.094597	-1.243482E-1
03/06/2025  21:41:18.095097	-1.190959E-1
03/06/2025  21:41:18.095597	-8.505834E-2
03/06/2025  21:41:18.096097	-5.654589E-2
03/06/2025  21:41:18.096597	-3.355858E-2
03/06/2025  21:41:18.097097	-3.983405E-2
03/06/2025  21:41:18.097597	-2.373611E-2
03/06/2025  21:41:18.098097	-1.295868E-2
03/06/2025  21:41:18.098597	-1.057127E-2
03/06/2025  21:41:18.099097	1.911448E-3
03/06/2025  21:41:18.099597	9.619359E-3
03/06/2025  21:41:18.100097	2.544445E-2
03/06/2025  21:41:18.100597	1.882793E-2
03/06/2025  21:41:18.101097	2.005573E-2
03/06/2025  21:41:18.101597	6.754472E-3
03/06/2025  21:41:18.102097	-7.024271E-3
03/06/2025  21:41:18.102597	-2.932946E-2
03/06/2025  21:41:18.103097	-3.335395E-2
03/06/2025  21:41:18.103597	-3.505924E-2
03/06/2025  21:41:18.104097	-4.549561E-2
03/06/2025  21:41:18.104597	-7.066569E-2
03/06/2025  21:41:18.105097	-8.833250E-2
03/06/2025  21:41:18.105597	-1.221655E-1
03/06/2025  21:41:18.106097	-1.445389E-1
03/06/2025  21:41:18.106597	-1.439932E-1
03/06/2025  21:41:18.107097	-1.568852E-1
03/06/2025  21:41:18.107597	-1.518375E-1
03/06/2025  21:41:18.108097	-1.724374E-1
03/06/2025  21:41:18.108597	-1.878532E-1
03/06/2025  21:41:18.109097	-1.926280E-1
03/06/2025  21:41:18.109597	-1.957658E-1
03/06/2025  21:41:18.110097	-1.877168E-1
03/06/2025  21:41:18.110597	-1.896949E-1
03/06/2025  21:41:18.111097	-1.830102E-1
03/06/2025  21:41:18.111597	-1.726420E-1
03/06/2025  21:41:18.112097	-1.620692E-1
03/06/2025  21:41:18.112597	-1.574309E-1
03/06/2025  21:41:18.113097	-1.379905E-1
03/06/2025  21:41:18.113597	-1.347164E-1
03/06/2025  21:41:18.114097	-1.214833E-1
03/06/2025  21:41:18.114597	-1.010881E-1
03/06/2025  21:41:18.115097	-8.417159E-2
03/06/2025  21:41:18.115597	-6.507234E-2
03/06/2025  21:41:18.116097	-4.604131E-2
03/06/2025  21:41:18.116597	-2.789702E-2
03/06/2025  21:41:18.117097	-3.681903E-3
03/06/2025  21:41:18.117597	1.637231E-2
03/06/2025  21:41:18.118097	2.866411E-3
03/06/2025  21:41:18.118597	3.071046E-3
03/06/2025  21:41:18.119097	2.489876E-2
03/06/2025  21:41:18.119597	1.964646E-2
03/06/2025  21:41:18.120097	2.544445E-2
03/06/2025  21:41:18.120597	2.503518E-2
03/06/2025  21:41:18.121097	1.664515E-2
03/06/2025  21:41:18.121597	6.754472E-3
03/06/2025  21:41:18.122097	1.418954E-2
03/06/2025  21:41:18.122597	-4.091172E-3
03/06/2025  21:41:18.123097	-1.991626E-2
03/06/2025  21:41:18.123597	-4.610952E-2
03/06/2025  21:41:18.124097	-4.174398E-2
03/06/2025  21:41:18.124597	-6.841471E-2
03/06/2025  21:41:18.125097	-7.912393E-2
03/06/2025  21:41:18.125597	-9.713180E-2
03/06/2025  21:41:18.126097	-1.388773E-1
03/06/2025  21:41:18.126597	-1.389455E-1
03/06/2025  21:41:18.127097	-1.525878E-1
03/06/2025  21:41:18.127597	-1.603639E-1
03/06/2025  21:41:18.128097	-1.621375E-1
03/06/2025  21:41:18.128597	-1.694361E-1
03/06/2025  21:41:18.129097	-1.723692E-1
03/06/2025  21:41:18.129597	-1.892175E-1
03/06/2025  21:41:18.130097	-1.818506E-1
03/06/2025  21:41:18.130597	-1.791221E-1
03/06/2025  21:41:18.131097	-1.761890E-1
03/06/2025  21:41:18.131597	-1.828738E-1
03/06/2025  21:41:18.132097	-1.649341E-1
03/06/2025  21:41:18.132597	-1.538838E-1
03/06/2025  21:41:18.133097	-1.432428E-1
03/06/2025  21:41:18.133597	-1.328747E-1
03/06/2025  21:41:18.134097	-1.084549E-1
03/06/2025  21:41:18.134597	-1.057265E-1
03/06/2025  21:41:18.135097	-8.860535E-2
03/06/2025  21:41:18.135597	-6.616373E-2
03/06/2025  21:41:18.136097	-4.617773E-2
03/06/2025  21:41:18.136597	-3.342216E-2
03/06/2025  21:41:18.137097	-1.002558E-2
03/06/2025  21:41:18.137597	-1.166266E-2
03/06/2025  21:41:18.138097	5.253817E-3
03/06/2025  21:41:18.138597	1.821402E-2
03/06/2025  21:41:18.139097	3.601725E-2
03/06/2025  21:41:18.139597	3.069674E-2
03/06/2025  21:41:18.140097	3.103780E-2
03/06/2025  21:41:18.140597	2.496697E-2
03/06/2025  21:41:18.141097	7.709435E-3
03/06/2025  21:41:18.141597	7.027319E-3
03/06/2025  21:41:18.142097	-8.852271E-4
03/06/2025  21:41:18.142597	-1.104876E-2
03/06/2025  21:41:18.143097	-2.591888E-2
03/06/2025  21:41:18.143597	-4.078901E-2
03/06/2025  21:41:18.144097	-6.063859E-2
03/06/2025  21:41:18.144597	-8.096565E-2
03/06/2025  21:41:18.145097	-9.283446E-2
03/06/2025  21:41:18.145597	-9.822318E-2
03/06/2025  21:41:18.146097	-1.216198E-1
03/06/2025  21:41:18.146597	-1.205966E-1
03/06/2025  21:41:18.147097	-1.456985E-1
03/06/2025  21:41:18.147597	-1.525878E-1
03/06/2025  21:41:18.148097	-1.596818E-1
03/06/2025  21:41:18.148597	-1.594090E-1
03/06/2025  21:41:18.149097	-1.781672E-1
03/06/2025  21:41:18.149597	-1.774168E-1
03/06/2025  21:41:18.150097	-1.902406E-1
03/06/2025  21:41:18.150597	-1.879214E-1
03/06/2025  21:41:18.151097	-1.718235E-1
03/06/2025  21:41:18.151597	-1.778261E-1
03/06/2025  21:41:18.152097	-1.731877E-1
03/06/2025  21:41:18.152597	-1.498594E-1
03/06/2025  21:41:18.153097	-1.461077E-1
03/06/2025  21:41:18.153597	-1.263264E-1
03/06/2025  21:41:18.154097	-1.175953E-1
03/06/2025  21:41:18.154597	-1.100920E-1
03/06/2025  21:41:18.155097	-7.721401E-2
03/06/2025  21:41:18.155597	-7.578156E-2
03/06/2025  21:41:18.156097	-5.422670E-2
03/06/2025  21:41:18.156597	-4.836050E-2
03/06/2025  21:41:18.157097	-2.810166E-2
03/06/2025  21:41:18.157597	-1.445934E-2
03/06/2025  21:41:18.158097	-3.477268E-3
03/06/2025  21:41:18.158597	1.043790E-2
03/06/2025  21:41:18.159097	1.978289E-2
03/06/2025  21:41:18.159597	1.357563E-2
03/06/2025  21:41:18.160097	2.162460E-2
03/06/2025  21:41:18.160597	2.762722E-2
03/06/2025  21:41:18.161097	1.684979E-2
03/06/2025  21:41:18.161597	1.466702E-2
03/06/2025  21:41:18.162097	5.867721E-3
03/06/2025  21:41:18.162597	5.867721E-3
03/06/2025  21:41:18.163097	-3.144402E-2
03/06/2025  21:41:18.163597	-3.540030E-2
03/06/2025  21:41:18.164097	-4.481350E-2
03/06/2025  21:41:18.164597	-7.175708E-2
03/06/2025  21:41:18.165097	-8.908283E-2
03/06/2025  21:41:18.165597	-1.041576E-1
03/06/2025  21:41:18.166097	-1.135708E-1
03/06/2025  21:41:18.166597	-1.439250E-1
03/06/2025  21:41:18.167097	-1.497912E-1
03/06/2025  21:41:18.167597	-1.637745E-1
03/06/2025  21:41:18.168097	-1.787811E-1
03/06/2025  21:41:18.168597	-1.828738E-1
03/06/2025  21:41:18.169097	-1.901042E-1
03/06/2025  21:41:18.169597	-1.866936E-1
03/06/2025  21:41:18.170097	-1.791221E-1
03/06/2025  21:41:18.170597	-1.830102E-1
03/06/2025  21:41:18.171097	-1.909910E-1
03/06/2025  21:41:18.171597	-1.889446E-1
03/06/2025  21:41:18.172097	-1.807592E-1
03/06/2025  21:41:18.172597	-1.669123E-1
03/06/2025  21:41:18.173097	-1.529971E-1
03/06/2025  21:41:18.173597	-1.256442E-1
03/06/2025  21:41:18.174097	-1.166403E-1
03/06/2025  21:41:18.174597	-9.658610E-2
03/06/2025  21:41:18.175097	-8.690006E-2
03/06/2025  21:41:18.175597	-7.516766E-2
03/06/2025  21:41:18.176097	-4.645058E-2
03/06/2025  21:41:18.176597	-3.260362E-2
03/06/2025  21:41:18.177097	-1.486861E-2
03/06/2025  21:41:18.177597	-2.182619E-2
03/06/2025  21:41:18.178097	2.743701E-4
03/06/2025  21:41:18.178597	-1.635555E-3
03/06/2025  21:41:18.179097	8.050493E-3
03/06/2025  21:41:18.179597	1.248425E-2
03/06/2025  21:41:18.180097	1.937362E-2
03/06/2025  21:41:18.180597	1.316636E-2
03/06/2025  21:41:18.181097	-8.865984E-3
03/06/2025  21:41:18.181597	-7.501752E-3
03/06/2025  21:41:18.182097	-2.196261E-2
03/06/2025  21:41:18.182597	-3.239899E-2
03/06/2025  21:41:18.183097	-3.212614E-2
03/06/2025  21:41:18.183597	-4.447244E-2
03/06/2025  21:41:18.184097	-5.675053E-2
03/06/2025  21:41:18.184597	-8.082922E-2
03/06/2025  21:41:18.185097	-9.624504E-2
03/06/2025  21:41:18.185597	-1.123430E-1
03/06/2025  21:41:18.186097	-1.279634E-1
03/06/2025  21:41:18.186597	-1.370356E-1
03/06/2025  21:41:18.187097	-1.485633E-1
03/06/2025  21:41:18.187597	-1.620692E-1
03/06/2025  21:41:18.188097	-1.829420E-1
03/06/2025  21:41:18.188597	-1.943333E-1
03/06/2025  21:41:18.189097	-1.841698E-1
03/06/2025  21:41:18.189597	-1.985624E-1
03/06/2025  21:41:18.190097	-1.943333E-1
03/06/2025  21:41:18.190597	-1.940605E-1
03/06/2025  21:41:18.191097	-1.875804E-1
03/06/2025  21:41:18.191597	-1.757116E-1
03/06/2025  21:41:18.192097	-1.844426E-1
03/06/2025  21:41:18.192597	-1.597500E-1
03/06/2025  21:41:18.193097	-1.500640E-1
03/06/2025  21:41:18.193597	-1.378541E-1
03/06/2025  21:41:18.194097	-1.317151E-1
03/06/2025  21:41:18.194597	-9.767749E-2
03/06/2025  21:41:18.195097	-7.878288E-2
03/06/2025  21:41:18.195597	-8.041995E-2
03/06/2025  21:41:18.196097	-5.661410E-2
03/06/2025  21:41:18.196597	-5.381743E-2
03/06/2025  21:41:18.197097	-3.874267E-2
03/06/2025  21:41:18.197597	-1.807455E-2
03/06/2025  21:41:18.198097	-9.889158E-3
03/06/2025  21:41:18.198597	4.162431E-3
03/06/2025  21:41:18.199097	-4.773288E-3
03/06/2025  21:41:18.199597	-1.220835E-2
03/06/2025  21:41:18.200097	-8.456715E-3
03/06/2025  21:41:18.200597	1.159750E-2
03/06/2025  21:41:18.201097	-4.364019E-3
03/06/2025  21:41:18.201597	-1.807455E-2
03/06/2025  21:41:18.202097	-1.316332E-2
03/06/2025  21:41:18.202597	-3.355858E-2
03/06/2025  21:41:18.203097	-4.651879E-2
03/06/2025  21:41:18.203597	-6.766438E-2
03/06/2025  21:41:18.204097	-7.182529E-2
03/06/2025  21:41:18.204597	-9.037885E-2
03/06/2025  21:41:18.205097	-9.938278E-2
03/06/2025  21:41:18.205597	-1.184138E-1
03/06/2025  21:41:18.206097	-1.432428E-1
03/06/2025  21:41:18.206597	-1.396958E-1
03/06/2025  21:41:18.207097	-1.622739E-1
03/06/2025  21:41:18.207597	-1.705275E-1
03/06/2025  21:41:18.208097	-1.723010E-1
03/06/2025  21:41:18.208597	-1.916049E-1
03/06/2025  21:41:18.209097	-1.961750E-1
03/06/2025  21:41:18.209597	-1.924916E-1
03/06/2025  21:41:18.210097	-1.993128E-1
03/06/2025  21:41:18.210597	-2.079074E-1
03/06/2025  21:41:18.211097	-1.871029E-1
03/06/2025  21:41:18.211597	-1.750294E-1
03/06/2025  21:41:18.212097	-1.793950E-1
03/06/2025  21:41:18.212597	-1.725056E-1
03/06/2025  21:41:18.213097	-1.600229E-1
03/06/2025  21:41:18.213597	-1.466534E-1
03/06/2025  21:41:18.214097	-1.300098E-1
03/06/2025  21:41:18.214597	-1.010881E-1
03/06/2025  21:41:18.215097	-1.015655E-1
03/06/2025  21:41:18.215597	-8.792323E-2
03/06/2025  21:41:18.216097	-7.298489E-2
03/06/2025  21:41:18.216597	-4.747375E-2
03/06/2025  21:41:18.217097	-2.503213E-2
03/06/2025  21:41:18.217597	-2.353148E-2
03/06/2025  21:41:18.218097	-1.050306E-2
03/06/2025  21:41:18.218597	-5.455404E-3
03/06/2025  21:41:18.219097	1.446238E-2
03/06/2025  21:41:18.219597	1.187034E-2
03/06/2025  21:41:18.220097	6.754472E-3
03/06/2025  21:41:18.220597	1.582662E-2
03/06/2025  21:41:18.221097	-8.524926E-3
03/06/2025  21:41:18.221597	-8.183868E-3
03/06/2025  21:41:18.222097	-1.534609E-2
03/06/2025  21:41:18.222597	-3.683274E-2
03/06/2025  21:41:18.223097	-5.354458E-2
03/06/2025  21:41:18.223597	-6.520877E-2
03/06/2025  21:41:18.224097	-6.711869E-2
03/06/2025  21:41:18.224597	-9.276625E-2
03/06/2025  21:41:18.225097	-1.023841E-1
03/06/2025  21:41:18.225597	-1.227794E-1
03/06/2025  21:41:18.226097	-1.242118E-1
03/06/2025  21:41:18.226597	-1.549070E-1
03/06/2025  21:41:18.227097	-1.733242E-1
03/06/2025  21:41:18.227597	-1.793950E-1
03/06/2025  21:41:18.228097	-1.821917E-1
03/06/2025  21:41:18.228597	-1.903088E-1
03/06/2025  21:41:18.229097	-2.089988E-1
03/06/2025  21:41:18.229597	-2.075664E-1
03/06/2025  21:41:18.230097	-2.072935E-1
03/06/2025  21:41:18.230597	-2.052472E-1
03/06/2025  21:41:18.231097	-2.081803E-1
03/06/2025  21:41:18.231597	-1.909910E-1
03/06/2025  21:41:18.232097	-1.873075E-1
03/06/2025  21:41:18.232597	-1.790539E-1
03/06/2025  21:41:18.233097	-1.405826E-1
03/06/2025  21:41:18.233597	-1.334204E-1
03/06/2025  21:41:18.234097	-1.154807E-1
03/06/2025  21:41:18.234597	-1.207330E-1
03/06/2025  21:41:18.235097	-9.071991E-2
03/06/2025  21:41:18.235597	-7.243920E-2
03/06/2025  21:41:18.236097	-5.108897E-2
03/06/2025  21:41:18.236597	-4.679163E-2
03/06/2025  21:41:18.237097	-2.905662E-2
03/06/2025  21:41:18.237597	-1.746065E-2
03/06/2025  21:41:18.238097	-4.091172E-3
03/06/2025  21:41:18.238597	-5.441691E-4
03/06/2025  21:41:18.239097	2.661776E-3
03/06/2025  21:41:18.239597	5.117394E-3
03/06/2025  21:41:18.240097	6.140568E-3
03/06/2025  21:41:18.240597	3.343892E-3
03/06/2025  21:41:18.241097	-7.911022E-3
03/06/2025  21:41:18.241597	1.775025E-3
03/06/2025  21:41:18.242097	-2.680564E-2
03/06/2025  21:41:18.242597	-3.239899E-2
03/06/2025  21:41:18.243097	-4.726912E-2
03/06/2025  21:41:18.243597	-5.941078E-2
03/06/2025  21:41:18.244097	-6.896040E-2
03/06/2025  21:41:18.244597	-8.962852E-2
03/06/2025  21:41:18.245097	-1.055218E-1
03/06/2025  21:41:18.245597	-1.178681E-1
03/06/2025  21:41:18.246097	-1.285773E-1
03/06/2025  21:41:18.246597	-1.570898E-1
03/06/2025  21:41:18.247097	-1.696407E-1
03/06/2025  21:41:18.247597	-1.817824E-1
03/06/2025  21:41:18.248097	-1.835559E-1
03/06/2025  21:41:18.248597	-1.900360E-1
03/06/2025  21:41:18.249097	-2.010181E-1
03/06/2025  21:41:18.249597	-2.011545E-1
03/06/2025  21:41:18.250097	-1.962433E-1
03/06/2025  21:41:18.250597	-2.051108E-1
03/06/2025  21:41:18.251097	-2.028598E-1
03/06/2025  21:41:18.251597	-2.004724E-1
03/06/2025  21:41:18.252097	-1.872393E-1
03/06/2025  21:41:18.252597	-1.686858E-1
03/06/2025  21:41:18.253097	-1.544295E-1
03/06/2025  21:41:18.253597	-1.465170E-1
03/06/2025  21:41:18.254097	-1.394230E-1
03/06/2025  21:41:18.254597	-1.098192E-1
03/06/2025  21:41:18.255097	-1.026569E-1
03/06/2025  21:41:18.255597	-8.294378E-2
03/06/2025  21:41:18.256097	-7.243920E-2
03/06/2025  21:41:18.256597	-4.460886E-2
03/06/2025  21:41:18.257097	-2.182619E-2
03/06/2025  21:41:18.257597	-1.561893E-2
03/06/2025  21:41:18.258097	-1.220835E-2
03/06/2025  21:41:18.258597	-5.660039E-3
03/06/2025  21:41:18.259097	6.959107E-3
03/06/2025  21:41:18.259597	3.343892E-3
03/06/2025  21:41:18.260097	6.072356E-3
03/06/2025  21:41:18.260597	6.618049E-3
03/06/2025  21:41:18.261097	8.882745E-4
03/06/2025  21:41:18.261597	-6.956060E-3
03/06/2025  21:41:18.262097	-2.728312E-2
03/06/2025  21:41:18.262597	-3.233078E-2
03/06/2025  21:41:18.263097	-4.576846E-2
03/06/2025  21:41:18.263597	-6.186640E-2
03/06/2025  21:41:18.264097	-7.687295E-2
03/06/2025  21:41:18.264597	-7.264383E-2
03/06/2025  21:41:18.265097	-9.604041E-2
03/06/2025  21:41:18.265597	-1.293277E-1
03/06/2025  21:41:18.266097	-1.486316E-1
03/06/2025  21:41:18.266597	-1.557256E-1
03/06/2025  21:41:18.267097	-1.628196E-1
03/06/2025  21:41:18.267597	-1.723010E-1
03/06/2025  21:41:18.268097	-1.906499E-1
03/06/2025  21:41:18.268597	-1.986307E-1
03/06/2025  21:41:18.269097	-1.946744E-1
03/06/2025  21:41:18.269597	-1.985624E-1
03/06/2025  21:41:18.270097	-2.062021E-1
03/06/2025  21:41:18.270597	-2.089306E-1
03/06/2025  21:41:18.271097	-2.008816E-1
03/06/2025  21:41:18.271597	-1.949472E-1
03/06/2025  21:41:18.272097	-1.877168E-1
03/06/2025  21:41:18.272597	-1.790539E-1
03/06/2025  21:41:18.273097	-1.642520E-1
03/06/2025  21:41:18.273597	-1.531335E-1
03/06/2025  21:41:18.274097	-1.358760E-1
03/06/2025  21:41:18.274597	-1.109788E-1
03/06/2025  21:41:18.275097	-9.140202E-2
03/06/2025  21:41:18.275597	-7.864645E-2
03/06/2025  21:41:18.276097	-6.786902E-2
03/06/2025  21:41:18.276597	-5.647768E-2
03/06/2025  21:41:18.277097	-2.741954E-2
03/06/2025  21:41:18.277597	-3.239899E-2
03/06/2025  21:41:18.278097	-1.391364E-2
03/06/2025  21:41:18.278597	-5.182558E-3
03/06/2025  21:41:18.279097	-6.751425E-3
03/06/2025  21:41:18.279597	-6.751425E-3
03/06/2025  21:41:18.280097	-1.241299E-2
03/06/2025  21:41:18.280597	-1.084412E-2
03/06/2025  21:41:18.281097	-3.136210E-3
03/06/2025  21:41:18.281597	-1.548251E-2
03/06/2025  21:41:18.282097	-1.070770E-2
03/06/2025  21:41:18.282597	-3.226256E-2
03/06/2025  21:41:18.283097	-4.372211E-2
03/06/2025  21:41:18.283597	-4.638236E-2
03/06/2025  21:41:18.284097	-7.605441E-2
03/06/2025  21:41:18.284597	-9.842782E-2
03/06/2025  21:41:18.285097	-1.064086E-1
03/06/2025  21:41:18.285597	-1.185502E-1
03/06/2025  21:41:18.286097	-1.353303E-1
03/06/2025  21:41:18.286597	-1.519057E-1
03/06/2025  21:41:18.287097	-1.633653E-1
03/06/2025  21:41:18.287597	-1.622739E-1
03/06/2025  21:41:18.288097	-1.877168E-1
03/06/2025  21:41:18.288597	-1.981532E-1
03/06/2025  21:41:18.289097	-2.038830E-1
03/06/2025  21:41:18.289597	-2.047697E-1
03/06/2025  21:41:18.290097	-2.049061E-1
03/06/2025  21:41:18.290597	-2.081121E-1
03/06/2025  21:41:18.291097	-2.008816E-1
03/06/2025  21:41:18.291597	-1.950154E-1
03/06/2025  21:41:18.292097	-1.957658E-1
03/06/2025  21:41:18.292597	-1.723692E-1
03/06/2025  21:41:18.293097	-1.706639E-1
03/06/2025  21:41:18.293597	-1.502004E-1
03/06/2025  21:41:18.294097	-1.373084E-1
03/06/2025  21:41:18.294597	-1.230522E-1
03/06/2025  21:41:18.295097	-1.092735E-1
03/06/2025  21:41:18.295597	-8.703648E-2
03/06/2025  21:41:18.296097	-6.295778E-2
03/06/2025  21:41:18.296597	-4.658700E-2
03/06/2025  21:41:18.297097	-3.430891E-2
03/06/2025  21:41:18.297597	-2.728312E-2
03/06/2025  21:41:18.298097	-8.593138E-3
03/06/2025  21:41:18.298597	-9.070619E-3
03/06/2025  21:41:18.299097	2.525353E-3
03/06/2025  21:41:18.299597	-6.819636E-3
03/06/2025  21:41:18.300097	-1.077591E-2
03/06/2025  21:41:18.300597	-3.272633E-3
03/06/2025  21:41:18.301097	-1.507324E-2
03/06/2025  21:41:18.301597	-1.732422E-2
03/06/2025  21:41:18.302097	-2.701027E-2
03/06/2025  21:41:18.302597	-3.608241E-2
03/06/2025  21:41:18.303097	-3.567314E-2
03/06/2025  21:41:18.303597	-5.368101E-2
03/06/2025  21:41:18.304097	-7.578156E-2
03/06/2025  21:41:18.304597	-8.894640E-2
03/06/2025  21:41:18.305097	-9.433512E-2
03/06/2025  21:41:18.305597	-1.318515E-1
03/06/2025  21:41:18.306097	-1.428336E-1
03/06/2025  21:41:18.306597	-1.481541E-1
03/06/2025  21:41:18.307097	-1.727102E-1
03/06/2025  21:41:18.307597	-1.847837E-1
03/06/2025  21:41:18.308097	-1.929009E-1
03/06/2025  21:41:18.308597	-1.985624E-1
03/06/2025  21:41:18.309097	-2.016320E-1
03/06/2025  21:41:18.309597	-1.895585E-1
03/06/2025  21:41:18.310097	-1.940605E-1
03/06/2025  21:41:18.310597	-2.231868E-1
03/06/2025  21:41:18.311097	-2.160928E-1
03/06/2025  21:41:18.311597	-2.032690E-1
03/06/2025  21:41:18.312097	-1.909227E-1
03/06/2025  21:41:18.312597	-1.674580E-1
03/06/2025  21:41:18.313097	-1.531335E-1
03/06/2025  21:41:18.313597	-1.446753E-1
03/06/2025  21:41:18.314097	-1.362853E-1
03/06/2025  21:41:18.314597	-1.201191E-1
03/06/2025  21:41:18.315097	-1.098874E-1
03/06/2025  21:41:18.315597	-9.140202E-2
03/06/2025  21:41:18.316097	-6.091144E-2
03/06/2025  21:41:18.316597	-5.074791E-2
03/06/2025  21:41:18.317097	-3.137581E-2
03/06/2025  21:41:18.317597	-2.530498E-2
03/06/2025  21:41:18.318097	-1.732422E-2
03/06/2025  21:41:18.318597	2.729988E-3
03/06/2025  21:41:18.319097	4.639913E-3
03/06/2025  21:41:18.319597	8.732609E-3
03/06/2025  21:41:18.320097	-4.432230E-3
03/06/2025  21:41:18.320597	-6.683213E-3
03/06/2025  21:41:18.321097	-1.411828E-2
03/06/2025  21:41:18.321597	-1.541430E-2
03/06/2025  21:41:18.322097	-1.718780E-2
03/06/2025  21:41:18.322597	-1.930236E-2
03/06/2025  21:41:18.323097	-4.372211E-2
03/06/2025  21:41:18.323597	-5.913793E-2
03/06/2025  21:41:18.324097	-8.157955E-2
03/06/2025  21:41:18.324597	-9.604041E-2
03/06/2025  21:41:18.325097	-1.070225E-1
03/06/2025  21:41:18.325597	-1.340343E-1
03/06/2025  21:41:18.326097	-1.383998E-1
03/06/2025  21:41:18.326597	-1.628196E-1
03/06/2025  21:41:18.327097	-1.674580E-1
03/06/2025  21:41:18.327597	-1.729149E-1
03/06/2025  21:41:18.328097	-1.837605E-1
03/06/2025  21:41:18.328597	-1.992446E-1
03/06/2025  21:41:18.329097	-2.088624E-1
03/06/2025  21:41:18.329597	-2.132962E-1
03/06/2025  21:41:18.330097	-2.244146E-1
03/06/2025  21:41:18.330597	-2.121366E-1
03/06/2025  21:41:18.331097	-1.950837E-1
03/06/2025  21:41:18.331597	-1.773486E-1
03/06/2025  21:41:18.332097	-1.736652E-1
03/06/2025  21:41:18.332597	-1.768029E-1
03/06/2025  21:41:18.333097	-1.466534E-1
03/06/2025  21:41:18.333597	-1.474037E-1
03/06/2025  21:41:18.334097	-1.331475E-1
03/06/2025  21:41:18.334597	-1.042940E-1
03/06/2025  21:41:18.335097	-9.215235E-2
03/06/2025  21:41:18.335597	-8.239809E-2
03/06/2025  21:41:18.336097	-6.459486E-2
03/06/2025  21:41:18.336597	-5.054327E-2
03/06/2025  21:41:18.337097	-4.044796E-2
03/06/2025  21:41:18.337597	-1.459576E-2
03/06/2025  21:41:18.338097	-1.152624E-2
03/06/2025  21:41:18.338597	-7.774599E-3
03/06/2025  21:41:18.339097	-7.569964E-3
03/06/2025  21:41:18.339597	-7.774599E-3
03/06/2025  21:41:18.340097	-1.282226E-2
03/06/2025  21:41:18.340597	-1.063949E-2
03/06/2025  21:41:18.341097	-8.865984E-3
03/06/2025  21:41:18.341597	-1.316332E-2
03/06/2025  21:41:18.342097	-1.316332E-2
03/06/2025  21:41:18.342597	-2.353148E-2
03/06/2025  21:41:18.343097	-3.567314E-2
03/06/2025  21:41:18.343597	-6.568625E-2
03/06/2025  21:41:18.344097	-7.939678E-2
03/06/2025  21:41:18.344597	-7.878288E-2
03/06/2025  21:41:18.345097	-1.025205E-1
03/06/2025  21:41:18.345597	-1.142529E-1
03/06/2025  21:41:18.346097	-1.348528E-1
03/06/2025  21:41:18.346597	-1.527925E-1
03/06/2025  21:41:18.347097	-1.766665E-1
03/06/2025  21:41:18.347597	-1.803499E-1
03/06/2025  21:41:18.348097	-1.805546E-1
03/06/2025  21:41:18.348597	-2.016320E-1
03/06/2025  21:41:18.349097	-1.990399E-1
03/06/2025  21:41:18.349597	-2.036101E-1
03/06/2025  21:41:18.350097	-2.008134E-1
03/06/2025  21:41:18.350597	-2.030644E-1
03/06/2025  21:41:18.351097	-2.018366E-1
03/06/2025  21:41:18.351597	-1.871711E-1
03/06/2025  21:41:18.352097	-1.853294E-1
03/06/2025  21:41:18.352597	-1.662301E-1
03/06/2025  21:41:18.353097	-1.582494E-1
03/06/2025  21:41:18.353597	-1.519057E-1
03/06/2025  21:41:18.354097	-1.306237E-1
03/06/2025  21:41:18.354597	-1.147986E-1
03/06/2025  21:41:18.355097	-9.835960E-2
03/06/2025  21:41:18.355597	-7.509945E-2
03/06/2025  21:41:18.356097	-6.500413E-2
03/06/2025  21:41:18.356597	-4.051617E-2
03/06/2025  21:41:18.357097	-3.424070E-2
03/06/2025  21:41:18.357597	-3.369501E-2
03/06/2025  21:41:18.358097	-2.319042E-2
03/06/2025  21:41:18.358597	-1.908401E-3
03/06/2025  21:41:18.359097	4.107933E-4
03/06/2025  21:41:18.359597	-2.658729E-3
03/06/2025  21:41:18.360097	-4.022961E-3
03/06/2025  21:41:18.360597	-1.089862E-3
03/06/2025  21:41:18.361097	-4.705077E-3
03/06/2025  21:41:18.361597	-1.759707E-2
03/06/2025  21:41:18.362097	-3.471818E-2
03/06/2025  21:41:18.362597	-5.095254E-2
03/06/2025  21:41:18.363097	-4.883798E-2
03/06/2025  21:41:18.363597	-6.295778E-2
03/06/2025  21:41:18.364097	-7.673653E-2
03/06/2025  21:41:18.364597	-9.829139E-2
03/06/2025  21:41:18.365097	-1.177999E-1
03/06/2025  21:41:18.365597	-1.315104E-1
03/06/2025  21:41:18.366097	-1.581812E-1
03/06/2025  21:41:18.366597	-1.605004E-1
03/06/2025  21:41:18.367097	-1.665030E-1
03/06/2025  21:41:18.367597	-1.798043E-1
03/06/2025  21:41:18.368097	-1.844426E-1
03/06/2025  21:41:18.368597	-2.032008E-1
03/06/2025  21:41:18.369097	-1.965161E-1
03/06/2025  21:41:18.369597	-2.059975E-1
03/06/2025  21:41:18.370097	-2.036101E-1
03/06/2025  21:41:18.370597	-1.981532E-1
03/06/2025  21:41:18.371097	-1.975393E-1
03/06/2025  21:41:18.371597	-1.819870E-1
03/06/2025  21:41:18.372097	-1.806228E-1
03/06/2025  21:41:18.372597	-1.665712E-1
03/06/2025  21:41:18.373097	-1.616600E-1
03/06/2025  21:41:18.373597	-1.455620E-1
03/06/2025  21:41:18.374097	-1.370356E-1
03/06/2025  21:41:18.374597	-1.132297E-1
03/06/2025  21:41:18.375097	-9.972384E-2
03/06/2025  21:41:18.375597	-7.557693E-2
03/06/2025  21:41:18.376097	-6.998358E-2
03/06/2025  21:41:18.376597	-5.395385E-2
03/06/2025  21:41:18.377097	-3.956120E-2
03/06/2025  21:41:18.377597	-2.639637E-2
03/06/2025  21:41:18.378097	-1.855203E-2
03/06/2025  21:41:18.378597	-1.862024E-2
03/06/2025  21:41:18.379097	-2.317671E-3
03/06/2025  21:41:18.379597	-3.136210E-3
03/06/2025  21:41:18.380097	2.661776E-3
03/06/2025  21:41:18.380597	-2.726940E-3
03/06/2025  21:41:18.381097	-2.931575E-3
03/06/2025  21:41:18.381597	-1.459576E-2
03/06/2025  21:41:18.382097	-2.216725E-2
03/06/2025  21:41:18.382597	-3.887909E-2
03/06/2025  21:41:18.383097	-6.534519E-2
03/06/2025  21:41:18.383597	-7.980605E-2
03/06/2025  21:41:18.384097	-7.523587E-2
03/06/2025  21:41:18.384597	-9.672253E-2
03/06/2025  21:41:18.385097	-1.226429E-1
03/06/2025  21:41:18.385597	-1.319197E-1
03/06/2025  21:41:18.386097	-1.444706E-1
03/06/2025  21:41:18.386597	-1.622739E-1
03/06/2025  21:41:18.387097	-1.743473E-1
03/06/2025  21:41:18.387597	-1.890810E-1
03/06/2025  21:41:18.388097	-1.944015E-1
03/06/2025  21:41:18.388597	-1.986989E-1
03/06/2025  21:41:18.389097	-2.082485E-1
03/06/2025  21:41:18.389597	-1.968572E-1
03/06/2025  21:41:18.390097	-2.007452E-1
03/06/2025  21:41:18.390597	-1.967889E-1
03/06/2025  21:41:18.391097	-1.966525E-1
03/06/2025  21:41:18.391597	-1.950154E-1
03/06/2025  21:41:18.392097	-1.823281E-1
03/06/2025  21:41:18.392597	-1.794632E-1
03/06/2025  21:41:18.393097	-1.686176E-1
03/06/2025  21:41:18.393597	-1.451528E-1
03/06/2025  21:41:18.394097	-1.279634E-1
03/06/2025  21:41:18.394597	-1.105695E-1
03/06/2025  21:41:18.395097	-9.542651E-2
03/06/2025  21:41:18.395597	-9.283446E-2
03/06/2025  21:41:18.396097	-5.136181E-2
03/06/2025  21:41:18.396597	-4.672342E-2
03/06/2025  21:41:18.397097	-3.321753E-2
03/06/2025  21:41:18.397597	-2.237188E-2
03/06/2025  21:41:18.398097	-6.273944E-3
03/06/2025  21:41:18.398597	-1.430920E-3
03/06/2025  21:41:18.399097	-1.425470E-2
03/06/2025  21:41:18.399597	-3.886538E-3
03/06/2025  21:41:18.400097	-1.814276E-2
03/06/2025  21:41:18.400597	8.200629E-4
03/06/2025  21:41:18.401097	-1.650568E-2
03/06/2025  21:41:18.401597	-1.452755E-2
03/06/2025  21:41:18.402097	-2.387254E-2
03/06/2025  21:41:18.402597	-3.274004E-2
03/06/2025  21:41:18.403097	-5.108897E-2
03/06/2025  21:41:18.403597	-7.332595E-2
03/06/2025  21:41:18.404097	-8.683184E-2
03/06/2025  21:41:18.404597	-9.399406E-2
03/06/2025  21:41:18.405097	-1.088642E-1
03/06/2025  21:41:18.405597	-1.323972E-1
03/06/2025  21:41:18.406097	-1.408554E-1
03/06/2025  21:41:18.406597	-1.642520E-1
03/06/2025  21:41:18.407097	-1.698454E-1
03/06/2025  21:41:18.407597	-1.872393E-1
03/06/2025  21:41:18.408097	-1.939923E-1
03/06/2025  21:41:18.408597	-1.951519E-1
03/06/2025  21:41:18.409097	-2.119319E-1
03/06/2025  21:41:18.409597	-2.131597E-1
03/06/2025  21:41:18.410097	-2.044286E-1
03/06/2025  21:41:18.410597	-2.072935E-1
03/06/2025  21:41:18.411097	-2.091352E-1
03/06/2025  21:41:18.411597	-2.013591E-1
03/06/2025  21:41:18.412097	-2.028598E-1
03/06/2025  21:41:18.412597	-1.740745E-1
03/06/2025  21:41:18.413097	-1.559302E-1
03/06/2025  21:41:18.413597	-1.581812E-1
03/06/2025  21:41:18.414097	-1.329429E-1
03/06/2025  21:41:18.414597	-1.077046E-1
03/06/2025  21:41:18.415097	-1.038165E-1
03/06/2025  21:41:18.415597	-9.849603E-2
03/06/2025  21:41:18.416097	-7.700937E-2
03/06/2025  21:41:18.416597	-5.927436E-2
03/06/2025  21:41:18.417097	-3.737843E-2
03/06/2025  21:41:18.417597	-3.001158E-2
03/06/2025  21:41:18.418097	-2.230367E-2
03/06/2025  21:41:18.418597	-1.643747E-2
03/06/2025  21:41:18.419097	-7.160694E-3
03/06/2025  21:41:18.419597	-6.956060E-3
03/06/2025  21:41:18.420097	-1.635555E-3
03/06/2025  21:41:18.420597	-1.021650E-3
03/06/2025  21:41:18.421097	-1.602820E-2
03/06/2025  21:41:18.421597	-2.162155E-2
03/06/2025  21:41:18.422097	-2.967052E-2
03/06/2025  21:41:18.422597	-4.883798E-2
03/06/2025  21:41:18.423097	-5.668232E-2
03/06/2025  21:41:18.423597	-7.346237E-2
03/06/2025  21:41:18.424097	-8.389875E-2
03/06/2025  21:41:18.424597	-9.747285E-2
03/06/2025  21:41:18.425097	-1.095463E-1
03/06/2025  21:41:18.425597	-1.302144E-1
03/06/2025  21:41:18.426097	-1.396958E-1
03/06/2025  21:41:18.426597	-1.700500E-1
03/06/2025  21:41:18.427097	-1.759844E-1
03/06/2025  21:41:18.427597	-1.873757E-1
03/06/2025  21:41:18.428097	-1.939241E-1
03/06/2025  21:41:18.428597	-2.130915E-1
03/06/2025  21:41:18.429097	-2.023823E-1
03/06/2025  21:41:18.429597	-2.055200E-1
03/06/2025  21:41:18.430097	-2.052472E-1
03/06/2025  21:41:18.430597	-2.135008E-1
03/06/2025  21:41:18.431097	-2.060657E-1
03/06/2025  21:41:18.431597	-2.035419E-1
03/06/2025  21:41:18.432097	-1.911956E-1
03/06/2025  21:41:18.432597	-1.786447E-1
03/06/2025  21:41:18.433097	-1.639110E-1
03/06/2025  21:41:18.433597	-1.421515E-1
03/06/2025  21:41:18.434097	-1.289184E-1
03/06/2025  21:41:18.434597	-1.162310E-1
03/06/2025  21:41:18.435097	-1.097509E-1
03/06/2025  21:41:18.435597	-8.887819E-2
03/06/2025  21:41:18.436097	-6.029753E-2
03/06/2025  21:41:18.436597	-4.488171E-2
03/06/2025  21:41:18.437097	-5.443133E-2
03/06/2025  21:41:18.437597	-3.001158E-2
03/06/2025  21:41:18.438097	-1.227656E-2
03/06/2025  21:41:18.438597	-1.739243E-2
03/06/2025  21:41:18.439097	3.548527E-3
03/06/2025  21:41:18.439597	9.564861E-4
03/06/2025  21:41:18.440097	2.252506E-3
03/06/2025  21:41:18.440597	-7.911022E-3
03/06/2025  21:41:18.441097	-1.350437E-2
03/06/2025  21:41:18.441597	-1.548251E-2
03/06/2025  21:41:18.442097	-2.591888E-2
03/06/2025  21:41:18.442597	-4.194861E-2
03/06/2025  21:41:18.443097	-5.872866E-2
03/06/2025  21:41:18.443597	-7.919214E-2
03/06/2025  21:41:18.444097	-8.533119E-2
03/06/2025  21:41:18.444597	-1.078410E-1
03/06/2025  21:41:18.445097	-1.089324E-1
03/06/2025  21:41:18.445597	-1.381952E-1
03/06/2025  21:41:18.446097	-1.496547E-1
03/06/2025  21:41:18.446597	-1.581812E-1
03/06/2025  21:41:18.447097	-1.673897E-1
03/06/2025  21:41:18.447597	-1.810321E-1
03/06/2025  21:41:18.448097	-2.008134E-1
03/06/2025  21:41:18.448597	-2.100220E-1
03/06/2025  21:41:18.449097	-2.169796E-1
03/06/2025  21:41:18.449597	-2.087260E-1
03/06/2025  21:41:18.450097	-2.012909E-1
03/06/2025  21:41:18.450597	-2.066114E-1
03/06/2025  21:41:18.451097	-2.034737E-1
03/06/2025  21:41:18.451597	-1.929691E-1
03/06/2025  21:41:18.452097	-1.829420E-1
03/06/2025  21:41:18.452597	-1.738698E-1
03/06/2025  21:41:18.453097	-1.654116E-1
03/06/2025  21:41:18.453597	-1.467216E-1
03/06/2025  21:41:18.454097	-1.317151E-1
03/06/2025  21:41:18.454597	-1.245529E-1
03/06/2025  21:41:18.455097	-1.034755E-1
03/06/2025  21:41:18.455597	-8.437623E-2
03/06/2025  21:41:18.456097	-6.800544E-2
03/06/2025  21:41:18.456597	-5.927436E-2
03/06/2025  21:41:18.457097	-4.795123E-2
03/06/2025  21:41:18.457597	-3.785591E-2
03/06/2025  21:41:18.458097	-2.387254E-2
03/06/2025  21:41:18.458597	-1.275405E-2
03/06/2025  21:41:18.459097	-3.477268E-3
03/06/2025  21:41:18.459597	-1.226285E-3
03/06/2025  21:41:18.460097	-6.410367E-3
03/06/2025  21:41:18.460597	3.889585E-3
03/06/2025  21:41:18.461097	2.184295E-3
03/06/2025  21:41:18.461597	-1.976613E-3
03/06/2025  21:41:18.462097	2.252506E-3
03/06/2025  21:41:18.462597	-3.239899E-2
03/06/2025  21:41:18.463097	-5.293068E-2
03/06/2025  21:41:18.463597	-7.632726E-2
03/06/2025  21:41:18.464097	-7.428091E-2
03/06/2025  21:41:18.464597	-1.009516E-1
03/06/2025  21:41:18.465097	-9.413049E-2
03/06/2025  21:41:18.465597	-1.199145E-1
03/06/2025  21:41:18.466097	-1.470627E-1
03/06/2025  21:41:18.466597	-1.613871E-1
03/06/2025  21:41:18.467097	-1.780308E-1
03/06/2025  21:41:18.467597	-1.915367E-1
03/06/2025  21:41:18.468097	-1.866936E-1
03/06/2025  21:41:18.468597	-1.877168E-1
03/06/2025  21:41:18.469097	-2.047697E-1
03/06/2025  21:41:18.469597	-2.122730E-1
03/06/2025  21:41:18.470097	-2.008134E-1
03/06/2025  21:41:18.470597	-2.092035E-1
03/06/2025  21:41:18.471097	-2.165021E-1
03/06/2025  21:41:18.471597	-2.068843E-1
03/06/2025  21:41:18.472097	-1.885353E-1
03/06/2025  21:41:18.472597	-1.708003E-1
03/06/2025  21:41:18.473097	-1.599547E-1
03/06/2025  21:41:18.473597	-1.417422E-1
03/06/2025  21:41:18.474097	-1.235297E-1
03/06/2025  21:41:18.474597	-1.193688E-1
03/06/2025  21:41:18.475097	-9.842782E-2
03/06/2025  21:41:18.475597	-9.733643E-2
03/06/2025  21:41:18.476097	-6.868756E-2
03/06/2025  21:41:18.476597	-5.006579E-2
03/06/2025  21:41:18.477097	-2.939768E-2
03/06/2025  21:41:18.477597	-2.571425E-2
03/06/2025  21:41:18.478097	-2.701027E-2
03/06/2025  21:41:18.478597	-6.001097E-3
03/06/2025  21:41:18.479097	-1.200372E-2
03/06/2025  21:41:18.479597	-5.728251E-3
03/06/2025  21:41:18.480097	-1.091233E-2
03/06/2025  21:41:18.480597	-6.615002E-3
03/06/2025  21:41:18.481097	-2.530498E-2
03/06/2025  21:41:18.481597	-1.595999E-2
03/06/2025  21:41:18.482097	-2.994337E-2
03/06/2025  21:41:18.482597	-4.467707E-2
03/06/2025  21:41:18.483097	-5.333995E-2
03/06/2025  21:41:18.483597	-5.968363E-2
03/06/2025  21:41:18.484097	-8.144313E-2
03/06/2025  21:41:18.484597	-8.949210E-2
03/06/2025  21:41:18.485097	-1.063404E-1
03/06/2025  21:41:18.485597	-1.377177E-1
03/06/2025  21:41:18.486097	-1.426289E-1
03/06/2025  21:41:18.486597	-1.603639E-1
03/06/2025  21:41:18.487097	-1.665712E-1
03/06/2025  21:41:18.487597	-1.793950E-1
03/06/2025  21:41:18.488097	-1.955611E-1
03/06/2025  21:41:18.488597	-2.003359E-1
03/06/2025  21:41:18.489097	-2.080439E-1
03/06/2025  21:41:18.489597	-1.934466E-1
03/06/2025  21:41:18.490097	-1.956293E-1
03/06/2025  21:41:18.490597	-2.010181E-1
03/06/2025  21:41:18.491097	-1.999949E-1
03/06/2025  21:41:18.491597	-1.996538E-1
03/06/2025  21:41:18.492097	-1.944697E-1
03/06/2025  21:41:18.492597	-1.779625E-1
03/06/2025  21:41:18.493097	-1.631606E-1
03/06/2025  21:41:18.493597	-1.519057E-1
03/06/2025  21:41:18.494097	-1.309647E-1
03/06/2025  21:41:18.494597	-1.151397E-1
03/06/2025  21:41:18.495097	-1.069543E-1
03/06/2025  21:41:18.495597	-8.628615E-2
03/06/2025  21:41:18.496097	-6.145713E-2
03/06/2025  21:41:18.496597	-5.286247E-2
03/06/2025  21:41:18.497097	-4.242609E-2
03/06/2025  21:41:18.497597	-3.840161E-2
03/06/2025  21:41:18.498097	-3.076191E-2
03/06/2025  21:41:18.498597	-2.319042E-2
03/06/2025  21:41:18.499097	-1.111697E-2
03/06/2025  21:41:18.499597	2.866411E-3
03/06/2025  21:41:18.500097	3.753162E-3
03/06/2025  21:41:18.500597	-4.364019E-3
03/06/2025  21:41:18.501097	2.061585E-4
03/06/2025  21:41:18.501597	-2.646458E-2
03/06/2025  21:41:18.502097	-2.496392E-2
03/06/2025  21:41:18.502597	-3.260362E-2
03/06/2025  21:41:18.503097	-4.426781E-2
03/06/2025  21:41:18.503597	-6.104786E-2
03/06/2025  21:41:18.504097	-8.342126E-2
03/06/2025  21:41:18.504597	-8.526298E-2
03/06/2025  21:41:18.505097	-1.191641E-1
03/06/2025  21:41:18.505597	-1.406508E-1
03/06/2025  21:41:18.506097	-1.534746E-1
03/06/2025  21:41:18.506597	-1.773486E-1
03/06/2025  21:41:18.507097	-1.855340E-1
03/06/2025  21:41:18.507597	-1.927645E-1
03/06/2025  21:41:18.508097	-1.918095E-1
03/06/2025  21:41:18.508597	-2.079074E-1
03/06/2025  21:41:18.509097	-2.236643E-1
03/06/2025  21:41:18.509597	-2.251650E-1
03/06/2025  21:41:18.510097	-2.098856E-1
03/06/2025  21:41:18.510597	-2.065432E-1
03/06/2025  21:41:18.511097	-2.045651E-1
03/06/2025  21:41:18.511597	-2.003359E-1
03/06/2025  21:41:18.512097	-1.893539E-1
03/06/2025  21:41:18.512597	-1.763937E-1
03/06/2025  21:41:18.513097	-1.604322E-1
03/06/2025  21:41:18.513597	-1.394230E-1
03/06/2025  21:41:18.514097	-1.423561E-1
03/06/2025  21:41:18.514597	-1.207330E-1
03/06/2025  21:41:18.515097	-1.065450E-1
03/06/2025  21:41:18.515597	-8.151134E-2
03/06/2025  21:41:18.516097	-7.864645E-2
03/06/2025  21:41:18.516597	-5.722801E-2
03/06/2025  21:41:18.517097	-6.220746E-2
03/06/2025  21:41:18.517597	-4.672342E-2
03/06/2025  21:41:18.518097	-3.014800E-2
03/06/2025  21:41:18.518597	-2.387254E-2
03/06/2025  21:41:18.519097	-1.780170E-2
03/06/2025  21:41:18.519597	-1.043485E-2
03/06/2025  21:41:18.520097	-2.073480E-2
03/06/2025  21:41:18.520597	-3.089833E-2
03/06/2025  21:41:18.521097	-3.219435E-2
03/06/2025  21:41:18.521597	-4.413138E-2
03/06/2025  21:41:18.522097	-4.979294E-2
03/06/2025  21:41:18.522597	-7.093854E-2
03/06/2025  21:41:18.523097	-6.834650E-2
03/06/2025  21:41:18.523597	-8.314842E-2
03/06/2025  21:41:18.524097	-9.181129E-2
03/06/2025  21:41:18.524597	-1.038165E-1
03/06/2025  21:41:18.525097	-1.159582E-1
03/06/2025  21:41:18.525597	-1.278952E-1
03/06/2025  21:41:18.526097	-1.479494E-1
03/06/2025  21:41:18.526597	-1.669123E-1
03/06/2025  21:41:18.527097	-1.742791E-1
03/06/2025  21:41:18.527597	-1.874440E-1
03/06/2025  21:41:18.528097	-2.024505E-1
03/06/2025  21:41:18.528597	-2.153425E-1
03/06/2025  21:41:18.529097	-2.162293E-1
03/06/2025  21:41:18.529597	-2.087942E-1
03/06/2025  21:41:18.530097	-2.194352E-1
03/06/2025  21:41:18.530597	-1.948108E-1
03/06/2025  21:41:18.531097	-1.864890E-1
03/06/2025  21:41:18.531597	-1.850565E-1
03/06/2025  21:41:18.532097	-1.685493E-1
03/06/2025  21:41:18.532597	-1.572944E-1
03/06/2025  21:41:18.533097	-1.408554E-1
03/06/2025  21:41:18.533597	-1.174589E-1
03/06/2025  21:41:18.534097	-1.184820E-1
03/06/2025  21:41:18.534597	-9.208414E-2
03/06/2025  21:41:18.535097	-7.837361E-2
03/06/2025  21:41:18.535597	-6.916504E-2
03/06/2025  21:41:18.536097	-4.542740E-2
03/06/2025  21:41:18.536597	-3.376322E-2
03/06/2025  21:41:18.537097	-1.650568E-2
03/06/2025  21:41:18.537597	3.207469E-3
03/06/2025  21:41:18.538097	6.959107E-3
03/06/2025  21:41:18.538597	3.042390E-2
03/06/2025  21:41:18.539097	3.212919E-2
03/06/2025  21:41:18.539597	2.639941E-2
03/06/2025  21:41:18.540097	2.189745E-2
03/06/2025  21:41:18.540597	3.813181E-2
03/06/2025  21:41:18.541097	2.701332E-2
03/06/2025  21:41:18.541597	2.489876E-2
03/06/2025  21:41:18.542097	8.459762E-3
03/06/2025  21:41:18.542597	-1.132160E-2
03/06/2025  21:41:18.543097	-1.848382E-2
03/06/2025  21:41:18.543597	-2.585067E-2
03/06/2025  21:41:18.544097	-5.647768E-2
03/06/2025  21:41:18.544597	-5.763728E-2
03/06/2025  21:41:18.545097	-9.317552E-2
03/06/2025  21:41:18.545597	-8.908283E-2
03/06/2025  21:41:18.546097	-1.018384E-1
03/06/2025  21:41:18.546597	-1.176635E-1
03/06/2025  21:41:18.547097	-1.280999E-1
03/06/2025  21:41:18.547597	-1.345118E-1
03/06/2025  21:41:18.548097	-1.471991E-1
03/06/2025  21:41:18.548597	-1.531335E-1
03/06/2025  21:41:18.549097	-1.675262E-1
03/06/2025  21:41:18.549597	-1.600911E-1
03/06/2025  21:41:18.550097	-1.631606E-1
03/06/2025  21:41:18.550597	-1.697089E-1
03/06/2025  21:41:18.551097	-1.591361E-1
03/06/2025  21:41:18.551597	-1.528607E-1
03/06/2025  21:41:18.552097	-1.471991E-1
03/06/2025  21:41:18.552597	-1.247575E-1
03/06/2025  21:41:18.553097	-1.195734E-1
03/06/2025  21:41:18.553597	-1.006106E-1
03/06/2025  21:41:18.554097	-7.223456E-2
03/06/2025  21:41:18.554597	-7.168887E-2
03/06/2025  21:41:18.555097	-4.433602E-2
03/06/2025  21:41:18.555597	-3.130760E-2
03/06/2025  21:41:18.556097	-1.957521E-2
03/06/2025  21:41:18.556597	-6.410367E-3
03/06/2025  21:41:18.557097	2.593564E-3
03/06/2025  21:41:18.557597	1.330279E-2
03/06/2025  21:41:18.558097	2.203387E-2
03/06/2025  21:41:18.558597	2.974178E-2
03/06/2025  21:41:18.559097	4.140597E-2
03/06/2025  21:41:18.559597	3.424375E-2
03/06/2025  21:41:18.560097	3.581261E-2
03/06/2025  21:41:18.560597	4.120133E-2
03/06/2025  21:41:18.561097	1.644052E-2
03/06/2025  21:41:18.561597	1.534913E-2
03/06/2025  21:41:18.562097	-4.364019E-3
03/06/2025  21:41:18.562597	1.843237E-3
03/06/2025  21:41:18.563097	-1.650568E-2
03/06/2025  21:41:18.563597	-3.990226E-2
03/06/2025  21:41:18.564097	-5.477239E-2
03/06/2025  21:41:18.564597	-8.219346E-2
03/06/2025  21:41:18.565097	-8.710469E-2
03/06/2025  21:41:18.565597	-9.529008E-2
03/06/2025  21:41:18.566097	-1.201191E-1
03/06/2025  21:41:18.566597	-1.424243E-1
03/06/2025  21:41:18.567097	-1.457667E-1
03/06/2025  21:41:18.567597	-1.700500E-1
03/06/2025  21:41:18.568097	-1.844426E-1
03/06/2025  21:41:18.568597	-1.956976E-1
03/06/2025  21:41:18.569097	-1.950154E-1
03/06/2025  21:41:18.569597	-2.037465E-1
03/06/2025  21:41:18.570097	-1.936512E-1
03/06/2025  21:41:18.570597	-1.823963E-1
03/06/2025  21:41:18.571097	-1.881943E-1
03/06/2025  21:41:18.571597	-1.921506E-1
03/06/2025  21:41:18.572097	-1.771440E-1
03/06/2025  21:41:18.572597	-1.646613E-1
03/06/2025  21:41:18.573097	-1.453574E-1
03/06/2025  21:41:18.573597	-1.202555E-1
03/06/2025  21:41:18.574097	-1.078410E-1
03/06/2025  21:41:18.574597	-1.048397E-1
03/06/2025  21:41:18.575097	-9.951920E-2
03/06/2025  21:41:18.575597	-7.407627E-2
03/06/2025  21:41:18.576097	-5.954720E-2
03/06/2025  21:41:18.576597	-5.108897E-2
03/06/2025  21:41:18.577097	-4.085723E-2
03/06/2025  21:41:18.577597	-2.571425E-2
03/06/2025  21:41:18.578097	-1.916594E-2
03/06/2025  21:41:18.578597	-3.545480E-3
03/06/2025  21:41:18.579097	-8.729561E-3
03/06/2025  21:41:18.579597	-1.567343E-3
03/06/2025  21:41:18.580097	2.729988E-3
03/06/2025  21:41:18.580597	2.047872E-3
03/06/2025  21:41:18.581097	-6.956060E-3
03/06/2025  21:41:18.581597	-1.698316E-2
03/06/2025  21:41:18.582097	-2.789702E-2
03/06/2025  21:41:18.582597	-4.160755E-2
03/06/2025  21:41:18.583097	-6.132071E-2
03/06/2025  21:41:18.583597	-7.250741E-2
03/06/2025  21:41:18.584097	-7.666832E-2
03/06/2025  21:41:18.584597	-1.021112E-1
03/06/2025  21:41:18.585097	-1.163675E-1
03/06/2025  21:41:18.585597	-1.238707E-1
03/06/2025  21:41:18.586097	-1.459031E-1
03/06/2025  21:41:18.586597	-1.635699E-1
03/06/2025  21:41:18.587097	-1.931055E-1
03/06/2025  21:41:18.587597	-1.864890E-1
03/06/2025  21:41:18.588097	-1.999267E-1
03/06/2025  21:41:18.588597	-2.190941E-1
03/06/2025  21:41:18.589097	-2.209359E-1
03/06/2025  21:41:18.589597	-2.128187E-1
03/06/2025  21:41:18.590097	-2.038830E-1
03/06/2025  21:41:18.590597	-1.965161E-1
03/06/2025  21:41:18.591097	-2.034737E-1
03/06/2025  21:41:18.591597	-1.975393E-1
03/06/2025  21:41:18.592097	-1.947426E-1
03/06/2025  21:41:18.592597	-1.773486E-1
03/06/2025  21:41:18.593097	-1.585904E-1
03/06/2025  21:41:18.593597	-1.531335E-1
03/06/2025  21:41:18.594097	-1.313740E-1
03/06/2025  21:41:18.594597	-1.143211E-1
03/06/2025  21:41:18.595097	-9.303910E-2
03/06/2025  21:41:18.595597	-7.373522E-2
03/06/2025  21:41:18.596097	-5.872866E-2
03/06/2025  21:41:18.596597	-5.177108E-2
03/06/2025  21:41:18.597097	-3.437712E-2
03/06/2025  21:41:18.597597	-2.435002E-2
03/06/2025  21:41:18.598097	-7.774599E-3
03/06/2025  21:41:18.598597	-5.318981E-3
03/06/2025  21:41:18.599097	-4.909712E-3
03/06/2025  21:41:18.599597	-1.568714E-2
03/06/2025  21:41:18.600097	9.564861E-4
03/06/2025  21:41:18.600597	-1.425470E-2
03/06/2025  21:41:18.601097	-1.357258E-2
03/06/2025  21:41:18.601597	-1.480039E-2
03/06/2025  21:41:18.602097	-2.319042E-2
03/06/2025  21:41:18.602597	-3.349037E-2
03/06/2025  21:41:18.603097	-5.279426E-2
03/06/2025  21:41:18.603597	-6.554982E-2
03/06/2025  21:41:18.604097	-8.021532E-2
03/06/2025  21:41:18.604597	-9.549472E-2
03/06/2025  21:41:18.605097	-1.047715E-1
03/06/2025  21:41:18.605597	-1.137754E-1
03/06/2025  21:41:18.606097	-1.512918E-1
03/06/2025  21:41:18.606597	-1.572944E-1
03/06/2025  21:41:18.607097	-1.509507E-1
03/06/2025  21:41:18.607597	-1.851248E-1
03/06/2025  21:41:18.608097	-1.853976E-1
03/06/2025  21:41:18.608597	-1.978803E-1
03/06/2025  21:41:18.609097	-1.903088E-1
03/06/2025  21:41:18.609597	-2.051108E-1
03/06/2025  21:41:18.610097	-2.058611E-1
03/06/2025  21:41:18.610597	-2.018366E-1
03/06/2025  21:41:18.611097	-1.971982E-1
03/06/2025  21:41:18.611597	-1.939923E-1
03/06/2025  21:41:18.612097	-1.906499E-1
03/06/2025  21:41:18.612597	-1.888082E-1
03/06/2025  21:41:18.613097	-1.724374E-1
03/06/2025  21:41:18.613597	-1.585904E-1
03/06/2025  21:41:18.614097	-1.376495E-1
03/06/2025  21:41:18.614597	-1.227111E-1
03/06/2025  21:41:18.615097	-1.015655E-1
03/06/2025  21:41:18.615597	-8.962852E-2
03/06/2025  21:41:18.616097	-6.186640E-2
03/06/2025  21:41:18.616597	-5.047506E-2
03/06/2025  21:41:18.617097	-3.731022E-2
03/06/2025  21:41:18.617597	-2.769239E-2
03/06/2025  21:41:18.618097	-1.718780E-2
03/06/2025  21:41:18.618597	-4.500442E-3
03/06/2025  21:41:18.619097	-5.796462E-3
03/06/2025  21:41:18.619597	1.843237E-3
03/06/2025  21:41:18.620097	-7.569964E-3
03/06/2025  21:41:18.620597	-1.575536E-2
03/06/2025  21:41:18.621097	-2.646458E-2
03/06/2025  21:41:18.621597	-2.994337E-2
03/06/2025  21:41:18.622097	-1.984805E-2
03/06/2025  21:41:18.622597	-3.642347E-2
03/06/2025  21:41:18.623097	-5.415849E-2
03/06/2025  21:41:18.623597	-7.537229E-2
03/06/2025  21:41:18.624097	-8.232988E-2
03/06/2025  21:41:18.624597	-8.560404E-2
03/06/2025  21:41:18.625097	-1.024523E-1
03/06/2025  21:41:18.625597	-1.314422E-1
03/06/2025  21:41:18.626097	-1.405144E-1
03/06/2025  21:41:18.626597	-1.594090E-1
03/06/2025  21:41:18.627097	-1.969254E-1
03/06/2025  21:41:18.627597	-1.917413E-1
03/06/2025  21:41:18.628097	-1.933784E-1
03/06/2025  21:41:18.628597	-2.019048E-1
03/06/2025  21:41:18.629097	-2.058611E-1
03/06/2025  21:41:18.629597	-2.027234E-1
03/06/2025  21:41:18.630097	-2.059293E-1
03/06/2025  21:41:18.630597	-2.015638E-1
03/06/2025  21:41:18.631097	-2.110452E-1
03/06/2025  21:41:18.631597	-1.929009E-1
03/06/2025  21:41:18.632097	-1.800771E-1
03/06/2025  21:41:18.632597	-1.814413E-1
03/06/2025  21:41:18.633097	-1.474037E-1
03/06/2025  21:41:18.633597	-1.306919E-1
03/06/2025  21:41:18.634097	-1.319197E-1
03/06/2025  21:41:18.634597	-1.032026E-1
03/06/2025  21:41:18.635097	-7.687295E-2
03/06/2025  21:41:18.635597	-5.245320E-2
03/06/2025  21:41:18.636097	-3.355858E-2
03/06/2025  21:41:18.636597	-1.882488E-2
03/06/2025  21:41:18.637097	-1.089862E-3
03/06/2025  21:41:18.637597	1.889614E-2
03/06/2025  21:41:18.638097	2.496697E-2
03/06/2025  21:41:18.638597	4.317947E-2
03/06/2025  21:41:18.639097	5.436617E-2
03/06/2025  21:41:18.639597	7.046411E-2
03/06/2025  21:41:18.640097	8.847197E-2
03/06/2025  21:41:18.640597	8.922230E-2
03/06/2025  21:41:18.641097	8.663026E-2
03/06/2025  21:41:18.641597	7.742169E-2
03/06/2025  21:41:18.642097	5.648073E-2
03/06/2025  21:41:18.642597	5.286551E-2
03/06/2025  21:41:18.643097	6.391579E-2
03/06/2025  21:41:18.643597	7.660315E-2
03/06/2025  21:41:18.644097	7.237403E-2
03/06/2025  21:41:18.644597	6.909988E-2
03/06/2025  21:41:18.645097	7.646673E-2
03/06/2025  21:41:18.645597	8.458391E-2
03/06/2025  21:41:18.646097	9.433817E-2
03/06/2025  21:41:18.646597	1.075030E-1
03/06/2025  21:41:18.647097	9.802159E-2
03/06/2025  21:41:18.647597	1.092083E-1
03/06/2025  21:41:18.648097	1.059341E-1
03/06/2025  21:41:18.648597	1.055931E-1
03/06/2025  21:41:18.649097	1.180076E-1
03/06/2025  21:41:18.649597	1.554558E-1
03/06/2025  21:41:18.650097	1.630955E-1
03/06/2025  21:41:18.650597	1.876516E-1
03/06/2025  21:41:18.651097	1.910622E-1
03/06/2025  21:41:18.651597	2.129581E-1
03/06/2025  21:41:18.652097	2.080469E-1
03/06/2025  21:41:18.652597	2.101615E-1
03/06/2025  21:41:18.653097	2.363547E-1
03/06/2025  21:41:18.653597	2.566818E-1
03/06/2025  21:41:18.654097	2.547036E-1
03/06/2025  21:41:18.654597	2.389468E-1
03/06/2025  21:41:18.655097	2.487010E-1
03/06/2025  21:41:18.655597	2.618659E-1
03/06/2025  21:41:18.656097	2.785095E-1
03/06/2025  21:41:18.656597	2.807605E-1
03/06/2025  21:41:18.657097	3.055213E-1
03/06/2025  21:41:18.657597	3.028610E-1
03/06/2025  21:41:18.658097	3.090683E-1
03/06/2025  21:41:18.658597	2.860810E-1
03/06/2025  21:41:18.659097	2.938571E-1
03/06/2025  21:41:18.659597	2.827386E-1
03/06/2025  21:41:18.660097	2.668453E-1
03/06/2025  21:41:18.660597	2.568182E-1
03/06/2025  21:41:18.661097	2.348541E-1
03/06/2025  21:41:18.661597	2.194382E-1
03/06/2025  21:41:18.662097	2.041588E-1
03/06/2025  21:41:18.662597	1.710080E-1
03/06/2025  21:41:18.663097	1.564107E-1
03/06/2025  21:41:18.663597	1.427002E-1
03/06/2025  21:41:18.664097	1.051838E-1
03/06/2025  21:41:18.664597	6.630320E-2
03/06/2025  21:41:18.665097	5.594875E-3
03/06/2025  21:41:18.665597	-1.445934E-2
03/06/2025  21:41:18.666097	-3.239899E-2
03/06/2025  21:41:18.666597	-5.190750E-2
03/06/2025  21:41:18.667097	-6.084322E-2
03/06/2025  21:41:18.667597	-9.979205E-2
03/06/2025  21:41:18.668097	-9.153844E-2
03/06/2025  21:41:18.668597	-9.679074E-2
03/06/2025  21:41:18.669097	-8.840071E-2
03/06/2025  21:41:18.669597	-8.724111E-2
03/06/2025  21:41:18.670097	-8.232988E-2
03/06/2025  21:41:18.670597	-7.557693E-2
03/06/2025  21:41:18.671097	-6.814187E-2
03/06/2025  21:41:18.671597	-6.800544E-2
03/06/2025  21:41:18.672097	-7.455376E-2
03/06/2025  21:41:18.672597	-5.327174E-2
03/06/2025  21:41:18.673097	-3.922015E-2
03/06/2025  21:41:18.673597	-2.475929E-2
03/06/2025  21:41:18.674097	-1.370901E-2
03/06/2025  21:41:18.674597	1.391669E-2
03/06/2025  21:41:18.675097	1.869150E-2
03/06/2025  21:41:18.675597	2.332989E-2
03/06/2025  21:41:18.676097	3.526692E-2
03/06/2025  21:41:18.676597	4.270199E-2
03/06/2025  21:41:18.677097	5.975489E-2
03/06/2025  21:41:18.677597	6.787207E-2
03/06/2025  21:41:18.678097	6.787207E-2
03/06/2025  21:41:18.678597	7.094159E-2
03/06/2025  21:41:18.679097	9.413353E-2
03/06/2025  21:41:18.679597	9.392890E-2
03/06/2025  21:41:18.680097	9.959046E-2
03/06/2025  21:41:18.680597	8.574351E-2
03/06/2025  21:41:18.681097	8.526602E-2
03/06/2025  21:41:18.681597	7.401111E-2
03/06/2025  21:41:18.682097	5.879992E-2
03/06/2025  21:41:18.682597	3.090138E-2
03/06/2025  21:41:18.683097	1.309815E-2
03/06/2025  21:41:18.683597	-1.439112E-2
03/06/2025  21:41:18.684097	-2.482750E-2
03/06/2025  21:41:18.684597	-4.829229E-2
03/06/2025  21:41:18.685097	-6.589088E-2
03/06/2025  21:41:18.685597	-7.059748E-2
03/06/2025  21:41:18.686097	-9.426691E-2
03/06/2025  21:41:18.686597	-1.025887E-1
03/06/2025  21:41:18.687097	-1.200509E-1
03/06/2025  21:41:18.687597	-1.311694E-1
03/06/2025  21:41:18.688097	-1.233933E-1
03/06/2025  21:41:18.688597	-1.222337E-1
03/06/2025  21:41:18.689097	-1.204602E-1
03/06/2025  21:41:18.689597	-1.143893E-1
03/06/2025  21:41:18.690097	-1.170496E-1
03/06/2025  21:41:18.690597	-1.257125E-1
03/06/2025  21:41:18.691097	-1.091370E-1
03/06/2025  21:41:18.691597	-1.150032E-1
03/06/2025  21:41:18.692097	-1.016338E-1
03/06/2025  21:41:18.692597	-8.942388E-2
03/06/2025  21:41:18.693097	-7.823718E-2
03/06/2025  21:41:18.693597	-7.298489E-2
03/06/2025  21:41:18.694097	-6.432202E-2
03/06/2025  21:41:18.694597	-3.171687E-2
03/06/2025  21:41:18.695097	-3.574136E-2
03/06/2025  21:41:18.695597	-1.698316E-2
03/06/2025  21:41:18.696097	-7.160694E-3
03/06/2025  21:41:18.696597	1.262067E-2
03/06/2025  21:41:18.697097	4.230643E-3
03/06/2025  21:41:18.697597	1.828223E-2
03/06/2025  21:41:18.698097	1.541735E-2
03/06/2025  21:41:18.698597	3.792717E-2
03/06/2025  21:41:18.699097	5.027347E-2
03/06/2025  21:41:18.699597	4.734037E-2
03/06/2025  21:41:18.700097	3.533513E-2
03/06/2025  21:41:18.700597	3.390269E-2
03/06/2025  21:41:18.701097	2.926430E-2
03/06/2025  21:41:18.701597	1.493986E-2
03/06/2025  21:41:18.702097	7.300165E-3
03/06/2025  21:41:18.702597	-3.886538E-3
03/06/2025  21:41:18.703097	-1.814276E-2
03/06/2025  21:41:18.703597	-2.994337E-2
03/06/2025  21:41:18.704097	-6.418559E-2
03/06/2025  21:41:18.704597	-7.032464E-2
03/06/2025  21:41:18.705097	-8.048817E-2
03/06/2025  21:41:18.705597	-1.053172E-1
03/06/2025  21:41:18.706097	-1.190277E-1
03/06/2025  21:41:18.706597	-1.296005E-1
03/06/2025  21:41:18.707097	-1.460395E-1
03/06/2025  21:41:18.707597	-1.485633E-1
03/06/2025  21:41:18.708097	-1.708685E-1
03/06/2025  21:41:18.708597	-1.890810E-1
03/06/2025  21:41:18.709097	-1.783718E-1
03/06/2025  21:41:18.709597	-1.947426E-1
03/06/2025  21:41:18.710097	-1.774851E-1
03/06/2025  21:41:18.710597	-1.776215E-1
03/06/2025  21:41:18.711097	-1.783036E-1
03/06/2025  21:41:18.711597	-1.676626E-1
03/06/2025  21:41:18.712097	-1.662984E-1
03/06/2025  21:41:18.712597	-1.529289E-1
03/06/2025  21:41:18.713097	-1.433793E-1
03/06/2025  21:41:18.713597	-1.183456E-1
03/06/2025  21:41:18.714097	-1.281681E-1
03/06/2025  21:41:18.714597	-1.008152E-1
03/06/2025  21:41:18.715097	-8.423980E-2
03/06/2025  21:41:18.715597	-5.995647E-2
03/06/2025  21:41:18.716097	-4.290357E-2
03/06/2025  21:41:18.716597	-3.928836E-2
03/06/2025  21:41:18.717097	-2.421359E-2
03/06/2025  21:41:18.717597	-2.066659E-2
03/06/2025  21:41:18.718097	-2.522306E-3
03/06/2025  21:41:18.718597	1.644052E-2
03/06/2025  21:41:18.719097	2.155639E-2
03/06/2025  21:41:18.719597	2.060143E-2
03/06/2025  21:41:18.720097	7.777646E-3
03/06/2025  21:41:18.720597	1.493986E-2
03/06/2025  21:41:18.721097	7.518513E-4
03/06/2025  21:41:18.721597	2.184295E-3
03/06/2025  21:41:18.722097	-5.182558E-3
03/06/2025  21:41:18.722597	-1.323153E-2
03/06/2025  21:41:18.723097	-3.969763E-2
03/06/2025  21:41:18.723597	-5.490881E-2
03/06/2025  21:41:18.724097	-6.623194E-2
03/06/2025  21:41:18.724597	-7.332595E-2
03/06/2025  21:41:18.725097	-9.106096E-2
03/06/2025  21:41:18.725597	-1.022477E-1
03/06/2025  21:41:18.726097	-1.209376E-1
03/06/2025  21:41:18.726597	-1.313740E-1
03/06/2025  21:41:18.727097	-1.495183E-1
03/06/2025  21:41:18.727597	-1.780990E-1
03/06/2025  21:41:18.728097	-1.740063E-1
03/06/2025  21:41:18.728597	-1.927645E-1
03/06/2025  21:41:18.729097	-1.859433E-1
03/06/2025  21:41:18.729597	-1.835559E-1
03/06/2025  21:41:18.730097	-1.841698E-1
03/06/2025  21:41:18.730597	-1.780990E-1
03/06/2025  21:41:18.731097	-1.657527E-1
03/06/2025  21:41:18.731597	-1.672533E-1
03/06/2025  21:41:18.732097	-1.635017E-1
03/06/2025  21:41:18.732597	-1.450163E-1
03/06/2025  21:41:18.733097	-1.228476E-1
03/06/2025  21:41:18.733597	-1.113880E-1
03/06/2025  21:41:18.734097	-8.717290E-2
03/06/2025  21:41:18.734597	-7.359879E-2
03/06/2025  21:41:18.735097	-6.520877E-2
03/06/2025  21:41:18.735597	-4.733733E-2
03/06/2025  21:41:18.736097	-4.604131E-2
03/06/2025  21:41:18.736597	-1.711959E-2
03/06/2025  21:41:18.737097	-6.615002E-3
03/06/2025  21:41:18.737597	4.912759E-3
03/06/2025  21:41:18.738097	1.268888E-2
03/06/2025  21:41:18.738597	1.541735E-2
03/06/2025  21:41:18.739097	2.169281E-2
03/06/2025  21:41:18.739597	2.135175E-2
03/06/2025  21:41:18.740097	3.281130E-2
03/06/2025  21:41:18.740597	3.519871E-2
03/06/2025  21:41:18.741097	2.810470E-2
03/06/2025  21:41:18.741597	2.708153E-2
03/06/2025  21:41:18.742097	1.229332E-3
03/06/2025  21:41:18.742597	-1.227656E-2
03/06/2025  21:41:18.743097	-2.776060E-2
03/06/2025  21:41:18.743597	-4.037974E-2
03/06/2025  21:41:18.744097	-4.283536E-2
03/06/2025  21:41:18.744597	-7.223456E-2
03/06/2025  21:41:18.745097	-9.153844E-2
03/06/2025  21:41:18.745597	-1.032026E-1
03/06/2025  21:41:18.746097	-1.110470E-1
03/06/2025  21:41:18.746597	-1.267356E-1
03/06/2025  21:41:18.747097	-1.382634E-1
03/06/2025  21:41:18.747597	-1.553163E-1
03/06/2025  21:41:18.748097	-1.561348E-1
03/06/2025  21:41:18.748597	-1.733242E-1
03/06/2025  21:41:18.749097	-1.808274E-1
03/06/2025  21:41:18.749597	-1.818506E-1
03/06/2025  21:41:18.750097	-1.710050E-1
03/06/2025  21:41:18.750597	-1.700500E-1
03/06/2025  21:41:18.751097	-1.698454E-1
03/06/2025  21:41:18.751597	-1.572262E-1
03/06/2025  21:41:18.752097	-1.579765E-1
03/06/2025  21:41:18.752597	-1.580448E-1
03/06/2025  21:41:18.753097	-1.252350E-1
03/06/2025  21:41:18.753597	-1.096827E-1
03/06/2025  21:41:18.754097	-9.419870E-2
03/06/2025  21:41:18.754597	-8.117028E-2
03/06/2025  21:41:18.755097	-5.695516E-2
03/06/2025  21:41:18.755597	-5.497703E-2
03/06/2025  21:41:18.756097	-5.013400E-2
03/06/2025  21:41:18.756597	-3.069370E-2
03/06/2025  21:41:18.757097	-1.111697E-2
03/06/2025  21:41:18.757597	5.253817E-3
03/06/2025  21:41:18.758097	1.275709E-2
03/06/2025  21:41:18.758597	2.905967E-2
03/06/2025  21:41:18.759097	2.871861E-2
03/06/2025  21:41:18.759597	3.956425E-2
03/06/2025  21:41:18.760097	3.417554E-2
03/06/2025  21:41:18.760597	3.165171E-2
03/06/2025  21:41:18.761097	2.469412E-2
03/06/2025  21:41:18.761597	1.971468E-2
03/06/2025  21:41:18.762097	8.323339E-3
03/06/2025  21:41:18.762597	9.551148E-3
03/06/2025  21:41:18.763097	-1.998448E-2
03/06/2025  21:41:18.763597	-2.912483E-2
03/06/2025  21:41:18.764097	-5.374922E-2
03/06/2025  21:41:18.764597	-6.582267E-2
03/06/2025  21:41:18.765097	-7.066569E-2
03/06/2025  21:41:18.765597	-9.331195E-2
03/06/2025  21:41:18.766097	-1.057947E-1
03/06/2025  21:41:18.766597	-1.200509E-1
03/06/2025  21:41:18.767097	-1.330111E-1
03/06/2025  21:41:18.767597	-1.354667E-1
03/06/2025  21:41:18.768097	-1.368992E-1
03/06/2025  21:41:18.768597	-1.705957E-1
03/06/2025  21:41:18.769097	-1.647295E-1
03/06/2025  21:41:18.769597	-1.759162E-1
03/06/2025  21:41:18.770097	-1.774851E-1
03/06/2025  21:41:18.770597	-1.610461E-1
03/06/2025  21:41:18.771097	-1.569534E-1
03/06/2025  21:41:18.771597	-1.481541E-1
03/06/2025  21:41:18.772097	-1.521103E-1
03/06/2025  21:41:18.772597	-1.310330E-1
03/06/2025  21:41:18.773097	-1.037483E-1
03/06/2025  21:41:18.773597	-9.481260E-2
03/06/2025  21:41:18.774097	-6.616373E-2
03/06/2025  21:41:18.774597	-6.507234E-2
03/06/2025  21:41:18.775097	-4.911083E-2
03/06/2025  21:41:18.775597	-5.136181E-2
03/06/2025  21:41:18.776097	-2.257652E-2
03/06/2025  21:41:18.776597	-7.911022E-3
03/06/2025  21:41:18.777097	8.732609E-3
03/06/2025  21:41:18.777597	1.719085E-2
03/06/2025  21:41:18.778097	3.594904E-2
03/06/2025  21:41:18.778597	5.075095E-2
03/06/2025  21:41:18.779097	4.283841E-2
03/06/2025  21:41:18.779597	3.724506E-2
03/06/2025  21:41:18.780097	4.352052E-2
03/06/2025  21:41:18.780597	3.383448E-2
03/06/2025  21:41:18.781097	3.588083E-2
03/06/2025  21:41:18.781597	4.051921E-2
03/06/2025  21:41:18.782097	2.899145E-2
03/06/2025  21:41:18.782597	1.616767E-2
03/06/2025  21:41:18.783097	1.009684E-2
03/06/2025  21:41:18.783597	-1.002558E-2
03/06/2025  21:41:18.784097	-2.482750E-2
03/06/2025  21:41:18.784597	-4.283536E-2
03/06/2025  21:41:18.785097	-6.732333E-2
03/06/2025  21:41:18.785597	-8.007890E-2
03/06/2025  21:41:18.786097	-8.676363E-2
03/06/2025  21:41:18.786597	-1.158218E-1
03/06/2025  21:41:18.787097	-1.289866E-1
03/06/2025  21:41:18.787597	-1.322608E-1
03/06/2025  21:41:18.788097	-1.287138E-1
03/06/2025  21:41:18.788597	-1.563395E-1
03/06/2025  21:41:18.789097	-1.444024E-1
03/06/2025  21:41:18.789597	-1.589315E-1
03/06/2025  21:41:18.790097	-1.476766E-1
03/06/2025  21:41:18.790597	-1.513600E-1
03/06/2025  21:41:18.791097	-1.379905E-1
03/06/2025  21:41:18.791597	-1.424243E-1
03/06/2025  21:41:18.792097	-1.372402E-1
03/06/2025  21:41:18.792597	-1.025887E-1
03/06/2025  21:41:18.793097	-1.054536E-1
03/06/2025  21:41:18.793597	-8.348948E-2
03/06/2025  21:41:18.794097	-6.691406E-2
03/06/2025  21:41:18.794597	-5.361279E-2
03/06/2025  21:41:18.795097	-2.803344E-2
03/06/2025  21:41:18.795597	-1.070770E-2
03/06/2025  21:41:18.796097	2.388930E-3
03/06/2025  21:41:18.796597	9.823994E-3
03/06/2025  21:41:18.797097	2.523982E-2
03/06/2025  21:41:18.797597	4.311126E-2
03/06/2025  21:41:18.798097	2.899145E-2
03/06/2025  21:41:18.798597	5.143307E-2
03/06/2025  21:41:18.799097	5.627609E-2
03/06/2025  21:41:18.799597	6.241514E-2
03/06/2025  21:41:18.800097	6.473433E-2
03/06/2025  21:41:18.800597	6.534824E-2
03/06/2025  21:41:18.801097	4.304304E-2
03/06/2025  21:41:18.801597	4.863639E-2
03/06/2025  21:41:18.802097	3.867750E-2
03/06/2025  21:41:18.802597	2.946894E-2
03/06/2025  21:41:18.803097	1.262067E-2
03/06/2025  21:41:18.803597	-1.430920E-3
03/06/2025  21:41:18.804097	-2.312221E-2
03/06/2025  21:41:18.804597	-3.267183E-2
03/06/2025  21:41:18.805097	-5.518166E-2
03/06/2025  21:41:18.805597	-7.537229E-2
03/06/2025  21:41:18.806097	-7.789612E-2
03/06/2025  21:41:18.806597	-9.951920E-2
03/06/2025  21:41:18.807097	-1.028616E-1
03/06/2025  21:41:18.807597	-1.182774E-1
03/06/2025  21:41:18.808097	-1.240072E-1
03/06/2025  21:41:18.808597	-1.397640E-1
03/06/2025  21:41:18.809097	-1.378541E-1
03/06/2025  21:41:18.809597	-1.375131E-1
03/06/2025  21:41:18.810097	-1.249621E-1
03/06/2025  21:41:18.810597	-1.088642E-1
03/06/2025  21:41:18.811097	-1.246211E-1
03/06/2025  21:41:18.811597	-1.168449E-1
03/06/2025  21:41:18.812097	-1.012927E-1
03/06/2025  21:41:18.812597	-9.010600E-2
03/06/2025  21:41:18.813097	-8.430801E-2
03/06/2025  21:41:18.813597	-5.831939E-2
03/06/2025  21:41:18.814097	-5.715980E-2
03/06/2025  21:41:18.814597	-4.535919E-2
03/06/2025  21:41:18.815097	-5.318981E-3
03/06/2025  21:41:18.815597	3.207469E-3
03/06/2025  21:41:18.816097	2.790007E-2
03/06/2025  21:41:18.816597	4.290662E-2
03/06/2025  21:41:18.817097	4.092848E-2
03/06/2025  21:41:18.817597	4.877282E-2
03/06/2025  21:41:18.818097	5.600325E-2
03/06/2025  21:41:18.818597	6.098269E-2
03/06/2025  21:41:18.819097	8.192366E-2
03/06/2025  21:41:18.819597	7.646673E-2
03/06/2025  21:41:18.820097	8.008194E-2
03/06/2025  21:41:18.820597	7.660315E-2
03/06/2025  21:41:18.821097	8.703953E-2
03/06/2025  21:41:18.821597	7.257867E-2
03/06/2025  21:41:18.822097	6.357474E-2
03/06/2025  21:41:18.822597	6.118733E-2
03/06/2025  21:41:18.823097	2.701332E-2
03/06/2025  21:41:18.823597	2.080606E-2
03/06/2025  21:41:18.824097	1.998752E-2
03/06/2025  21:41:18.824597	-1.630105E-2
03/06/2025  21:41:18.825097	-1.909772E-2
03/06/2025  21:41:18.825597	-3.130760E-2
03/06/2025  21:41:18.826097	-2.830629E-2
03/06/2025  21:41:18.826597	-4.897441E-2
03/06/2025  21:41:18.827097	-8.485371E-2
03/06/2025  21:41:18.827597	-7.612262E-2
03/06/2025  21:41:18.828097	-8.464907E-2
03/06/2025  21:41:18.828597	-9.733643E-2
03/06/2025  21:41:18.829097	-1.152079E-1
03/06/2025  21:41:18.829597	-9.842782E-2
03/06/2025  21:41:18.830097	-1.000649E-1
03/06/2025  21:41:18.830597	-1.006788E-1
03/06/2025  21:41:18.831097	-8.649079E-2
03/06/2025  21:41:18.831597	-8.819608E-2
03/06/2025  21:41:18.832097	-8.082922E-2
03/06/2025  21:41:18.832597	-5.177108E-2
03/06/2025  21:41:18.833097	-4.003869E-2
03/06/2025  21:41:18.833597	-2.366790E-2
03/06/2025  21:41:18.834097	-1.418649E-2
03/06/2025  21:41:18.834597	-6.668793E-5
03/06/2025  21:41:18.835097	1.548556E-2
03/06/2025  21:41:18.835597	1.487165E-2
03/06/2025  21:41:18.836097	5.006884E-2
03/06/2025  21:41:18.836597	6.623499E-2
03/06/2025  21:41:18.837097	9.051832E-2
03/06/2025  21:41:18.837597	1.036149E-1
03/06/2025  21:41:18.838097	1.165069E-1
03/06/2025  21:41:18.838597	1.169162E-1
03/06/2025  21:41:18.839097	1.208725E-1
03/06/2025  21:41:18.839597	1.181440E-1
03/06/2025  21:41:18.840097	1.181440E-1
03/06/2025  21:41:18.840597	1.093447E-1
03/06/2025  21:41:18.841097	1.115275E-1
03/06/2025  21:41:18.841597	1.143924E-1
03/06/2025  21:41:18.842097	1.037514E-1
03/06/2025  21:41:18.842597	8.690310E-2
03/06/2025  21:41:18.843097	6.412043E-2
03/06/2025  21:41:18.843597	6.302904E-2
03/06/2025  21:41:18.844097	5.040990E-2
03/06/2025  21:41:18.844597	3.083317E-2
03/06/2025  21:41:18.845097	2.251135E-2
03/06/2025  21:41:18.845597	7.095530E-3
03/06/2025  21:41:18.846097	-2.080301E-2
03/06/2025  21:41:18.846597	-3.239899E-2
03/06/2025  21:41:18.847097	-3.990226E-2
03/06/2025  21:41:18.847597	-4.624594E-2
03/06/2025  21:41:18.848097	-5.327174E-2
03/06/2025  21:41:18.848597	-6.991537E-2
03/06/2025  21:41:18.849097	-7.196171E-2
03/06/2025  21:41:18.849597	-7.735043E-2
03/06/2025  21:41:18.850097	-6.295778E-2
03/06/2025  21:41:18.850597	-5.961542E-2
03/06/2025  21:41:18.851097	-4.938368E-2
03/06/2025  21:41:18.851597	-4.931546E-2
03/06/2025  21:41:18.852097	-3.485460E-2
03/06/2025  21:41:18.852597	-2.025732E-2
03/06/2025  21:41:18.853097	-8.047445E-3
03/06/2025  21:41:18.853597	1.828223E-2
03/06/2025  21:41:18.854097	4.256556E-2
03/06/2025  21:41:18.854597	4.604435E-2
03/06/2025  21:41:18.855097	6.391579E-2
03/06/2025  21:41:18.855597	7.960446E-2
03/06/2025  21:41:18.856097	9.372426E-2
03/06/2025  21:41:18.856597	1.082533E-1
03/06/2025  21:41:18.857097	1.391532E-1
03/06/2025  21:41:18.857597	1.453604E-1
03/06/2025  21:41:18.858097	1.731226E-1
03/06/2025  21:41:18.858597	1.814444E-1
03/06/2025  21:41:18.859097	1.747596E-1
03/06/2025  21:41:18.859597	1.751007E-1
03/06/2025  21:41:18.860097	1.922900E-1
03/06/2025  21:41:18.860597	1.748961E-1
03/06/2025  21:41:18.861097	1.813080E-1
03/06/2025  21:41:18.861597	1.546372E-1
03/06/2025  21:41:18.862097	1.667107E-1
03/06/2025  21:41:18.862597	1.388121E-1
03/06/2025  21:41:18.863097	1.250334E-1
03/06/2025  21:41:18.863597	1.188943E-1
03/06/2025  21:41:18.864097	1.042971E-1
03/06/2025  21:41:18.864597	8.799449E-2
03/06/2025  21:41:18.865097	6.869061E-2
03/06/2025  21:41:18.865597	6.036879E-2
