waveform	Ch0	
t0	03/06/2025  21:46:52.352057	
delta t	0.000500	

time[0]	Ch0
03/06/2025  21:46:52.352057	1.843121E+0
03/06/2025  21:46:52.352557	1.959034E+0
03/06/2025  21:46:52.353057	1.999409E+0
03/06/2025  21:46:52.353557	2.093507E+0
03/06/2025  21:46:52.354057	2.190862E+0
03/06/2025  21:46:52.354557	2.285612E+0
03/06/2025  21:46:52.355057	2.370919E+0
03/06/2025  21:46:52.355557	2.456877E+0
03/06/2025  21:46:52.356057	2.471855E+0
03/06/2025  21:46:52.356557	2.486507E+0
03/06/2025  21:46:52.357057	2.473483E+0
03/06/2025  21:46:52.357557	2.424317E+0
03/06/2025  21:46:52.358057	2.392408E+0
03/06/2025  21:46:52.358557	2.353336E+0
03/06/2025  21:46:52.359057	2.290496E+0
03/06/2025  21:46:52.359557	2.214305E+0
03/06/2025  21:46:52.360057	2.103926E+0
03/06/2025  21:46:52.360557	2.002665E+0
03/06/2025  21:46:52.361057	1.923218E+0
03/06/2025  21:46:52.361557	1.843121E+0
03/06/2025  21:46:52.362057	1.741859E+0
03/06/2025  21:46:52.362557	1.615200E+0
03/06/2025  21:46:52.363057	1.530870E+0
03/06/2025  21:46:52.363557	1.469006E+0
03/06/2025  21:46:52.364057	1.401606E+0
03/06/2025  21:46:52.364557	1.318904E+0
03/06/2025  21:46:52.365057	1.258342E+0
03/06/2025  21:46:52.365557	1.234248E+0
03/06/2025  21:46:52.366057	1.205920E+0
03/06/2025  21:46:52.366557	1.141777E+0
03/06/2025  21:46:52.367057	1.113124E+0
03/06/2025  21:46:52.367557	1.069819E+0
03/06/2025  21:46:52.368057	1.012188E+0
03/06/2025  21:46:52.368557	9.806049E-1
03/06/2025  21:46:52.369057	9.415328E-1
03/06/2025  21:46:52.369557	9.044143E-1
03/06/2025  21:46:52.370057	8.562255E-1
03/06/2025  21:46:52.370557	8.213862E-1
03/06/2025  21:46:52.371057	7.839422E-1
03/06/2025  21:46:52.371557	6.839828E-1
03/06/2025  21:46:52.372057	6.364452E-1
03/06/2025  21:46:52.372557	5.599290E-1
03/06/2025  21:46:52.373057	5.075074E-1
03/06/2025  21:46:52.373557	4.003848E-1
03/06/2025  21:46:52.374057	2.773078E-1
03/06/2025  21:46:52.374557	1.734413E-1
03/06/2025  21:46:52.375057	8.227315E-2
03/06/2025  21:46:52.375557	6.733845E-3
03/06/2025  21:46:52.376057	-6.457266E-2
03/06/2025  21:46:52.376557	-1.410888E-1
03/06/2025  21:46:52.377057	-1.795096E-1
03/06/2025  21:46:52.377557	-2.342105E-1
03/06/2025  21:46:52.378057	-2.970514E-1
03/06/2025  21:46:52.378557	-3.934291E-1
03/06/2025  21:46:52.379057	-4.442228E-1
03/06/2025  21:46:52.379557	-4.969701E-1
03/06/2025  21:46:52.380057	-5.220413E-1
03/06/2025  21:46:52.380557	-5.506942E-1
03/06/2025  21:46:52.381057	-5.741374E-1
03/06/2025  21:46:52.381557	-6.047438E-1
03/06/2025  21:46:52.382057	-6.431647E-1
03/06/2025  21:46:52.382557	-6.718175E-1
03/06/2025  21:46:52.383057	-6.809344E-1
03/06/2025  21:46:52.383557	-6.825624E-1
03/06/2025  21:46:52.384057	-6.806087E-1
03/06/2025  21:46:52.384557	-6.851672E-1
03/06/2025  21:46:52.385057	-6.750735E-1
03/06/2025  21:46:52.385557	-6.692127E-1
03/06/2025  21:46:52.386057	-6.568399E-1
03/06/2025  21:46:52.386557	-6.099534E-1
03/06/2025  21:46:52.387057	-5.611134E-1
03/06/2025  21:46:52.387557	-5.383213E-1
03/06/2025  21:46:52.388057	-4.777597E-1
03/06/2025  21:46:52.388557	-4.513860E-1
03/06/2025  21:46:52.389057	-4.067788E-1
03/06/2025  21:46:52.389557	-3.706371E-1
03/06/2025  21:46:52.390057	-3.182154E-1
03/06/2025  21:46:52.390557	-2.915162E-1
03/06/2025  21:46:52.391057	-2.524441E-1
03/06/2025  21:46:52.391557	-2.550489E-1
03/06/2025  21:46:52.392057	-2.316057E-1
03/06/2025  21:46:52.392557	-2.211865E-1
03/06/2025  21:46:52.393057	-2.504905E-1
03/06/2025  21:46:52.393557	-2.576537E-1
03/06/2025  21:46:52.394057	-2.657937E-1
03/06/2025  21:46:52.394557	-2.631889E-1
03/06/2025  21:46:52.395057	-2.830506E-1
03/06/2025  21:46:52.395557	-2.908650E-1
03/06/2025  21:46:52.396057	-3.484963E-1
03/06/2025  21:46:52.396557	-3.826843E-1
03/06/2025  21:46:52.397057	-4.347804E-1
03/06/2025  21:46:52.397557	-4.585492E-1
03/06/2025  21:46:52.398057	-5.018541E-1
03/06/2025  21:46:52.398557	-5.500430E-1
03/06/2025  21:46:52.399057	-5.799982E-1
03/06/2025  21:46:52.399557	-6.405599E-1
03/06/2025  21:46:52.400057	-6.871208E-1
03/06/2025  21:46:52.400557	-7.154480E-1
03/06/2025  21:46:52.401057	-7.408448E-1
03/06/2025  21:46:52.401557	-7.304256E-1
03/06/2025  21:46:52.402057	-7.209832E-1
03/06/2025  21:46:52.402557	-7.867545E-1
03/06/2025  21:46:52.403057	-7.698233E-1
03/06/2025  21:46:52.403557	-7.467056E-1
03/06/2025  21:46:52.404057	-7.265184E-1
03/06/2025  21:46:52.404557	-7.144712E-1
03/06/2025  21:46:52.405057	-7.017728E-1
03/06/2025  21:46:52.405557	-6.871208E-1
03/06/2025  21:46:52.406057	-6.493511E-1
03/06/2025  21:46:52.406557	-6.024646E-1
03/06/2025  21:46:52.407057	-5.966038E-1
03/06/2025  21:46:52.407557	-5.448334E-1
03/06/2025  21:46:52.408057	-4.937141E-1
03/06/2025  21:46:52.408557	-4.653868E-1
03/06/2025  21:46:52.409057	-3.501243E-1
03/06/2025  21:46:52.409557	-3.843123E-1
03/06/2025  21:46:52.410057	-3.751955E-1
03/06/2025  21:46:52.410557	-3.419843E-1
03/06/2025  21:46:52.411057	-3.159362E-1
03/06/2025  21:46:52.411557	-2.983538E-1
03/06/2025  21:46:52.412057	-2.892370E-1
03/06/2025  21:46:52.412557	-2.700266E-1
03/06/2025  21:46:52.413057	-2.765386E-1
03/06/2025  21:46:52.413557	-3.071450E-1
03/06/2025  21:46:52.414057	-3.165874E-1
03/06/2025  21:46:52.414557	-3.462171E-1
03/06/2025  21:46:52.415057	-3.608691E-1
03/06/2025  21:46:52.415557	-3.807307E-1
03/06/2025  21:46:52.416057	-4.351060E-1
03/06/2025  21:46:52.416557	-4.595260E-1
03/06/2025  21:46:52.417057	-4.862253E-1
03/06/2025  21:46:52.417557	-5.272509E-1
03/06/2025  21:46:52.418057	-5.920454E-1
03/06/2025  21:46:52.418557	-5.904174E-1
03/06/2025  21:46:52.419057	-6.278615E-1
03/06/2025  21:46:52.419557	-6.776783E-1
03/06/2025  21:46:52.420057	-7.154480E-1
03/06/2025  21:46:52.420557	-7.431240E-1
03/06/2025  21:46:52.421057	-7.740561E-1
03/06/2025  21:46:52.421557	-8.271290E-1
03/06/2025  21:46:52.422057	-8.082441E-1
03/06/2025  21:46:52.422557	-8.310362E-1
03/06/2025  21:46:52.423057	-8.121513E-1
03/06/2025  21:46:52.423557	-7.929409E-1
03/06/2025  21:46:52.424057	-7.659161E-1
03/06/2025  21:46:52.424557	-7.532177E-1
03/06/2025  21:46:52.425057	-7.330304E-1
03/06/2025  21:46:52.425557	-6.877720E-1
03/06/2025  21:46:52.426057	-6.740967E-1
03/06/2025  21:46:52.426557	-6.174423E-1
03/06/2025  21:46:52.427057	-5.816262E-1
03/06/2025  21:46:52.427557	-5.490662E-1
03/06/2025  21:46:52.428057	-5.246461E-1
03/06/2025  21:46:52.428557	-5.321349E-1
03/06/2025  21:46:52.429057	-4.491068E-1
03/06/2025  21:46:52.429557	-4.279428E-1
03/06/2025  21:46:52.430057	-3.696603E-1
03/06/2025  21:46:52.430557	-3.100754E-1
03/06/2025  21:46:52.431057	-3.123546E-1
03/06/2025  21:46:52.431557	-2.898882E-1
03/06/2025  21:46:52.432057	-2.882602E-1
03/06/2025  21:46:52.432557	-2.690498E-1
03/06/2025  21:46:52.433057	-2.710034E-1
03/06/2025  21:46:52.433557	-2.921674E-1
03/06/2025  21:46:52.434057	-3.107266E-1
03/06/2025  21:46:52.434557	-3.511011E-1
03/06/2025  21:46:52.435057	-3.504499E-1
03/06/2025  21:46:52.435557	-4.123140E-1
03/06/2025  21:46:52.436057	-4.325012E-1
03/06/2025  21:46:52.436557	-4.741781E-1
03/06/2025  21:46:52.437057	-5.099941E-1
03/06/2025  21:46:52.437557	-4.907837E-1
03/06/2025  21:46:52.438057	-5.643694E-1
03/06/2025  21:46:52.438557	-5.917198E-1
03/06/2025  21:46:52.439057	-6.213495E-1
03/06/2025  21:46:52.439557	-6.832136E-1
03/06/2025  21:46:52.440057	-7.089360E-1
03/06/2025  21:46:52.440557	-7.467056E-1
03/06/2025  21:46:52.441057	-7.626601E-1
03/06/2025  21:46:52.441557	-7.808937E-1
03/06/2025  21:46:52.442057	-7.913129E-1
03/06/2025  21:46:52.442557	-8.294082E-1
03/06/2025  21:46:52.443057	-8.261522E-1
03/06/2025  21:46:52.443557	-8.040113E-1
03/06/2025  21:46:52.444057	-7.877313E-1
03/06/2025  21:46:52.444557	-7.519153E-1
03/06/2025  21:46:52.445057	-7.444264E-1
03/06/2025  21:46:52.445557	-6.988424E-1
03/06/2025  21:46:52.446057	-6.698639E-1
03/06/2025  21:46:52.446557	-6.122327E-1
03/06/2025  21:46:52.447057	-5.549270E-1
03/06/2025  21:46:52.447557	-5.458102E-1
03/06/2025  21:46:52.448057	-4.917605E-1
03/06/2025  21:46:52.448557	-4.562700E-1
03/06/2025  21:46:52.449057	-3.976619E-1
03/06/2025  21:46:52.449557	-3.641251E-1
03/06/2025  21:46:52.450057	-3.631483E-1
03/06/2025  21:46:52.450557	-3.165874E-1
03/06/2025  21:46:52.451057	-2.941210E-1
03/06/2025  21:46:52.451557	-2.612353E-1
03/06/2025  21:46:52.452057	-2.511417E-1
03/06/2025  21:46:52.452557	-2.469089E-1
03/06/2025  21:46:52.453057	-2.683986E-1
03/06/2025  21:46:52.453557	-2.775154E-1
03/06/2025  21:46:52.454057	-2.749106E-1
03/06/2025  21:46:52.454557	-3.055170E-1
03/06/2025  21:46:52.455057	-3.315650E-1
03/06/2025  21:46:52.455557	-3.553339E-1
03/06/2025  21:46:52.456057	-3.891963E-1
03/06/2025  21:46:52.456557	-4.139420E-1
03/06/2025  21:46:52.457057	-4.858997E-1
03/06/2025  21:46:52.457557	-5.259485E-1
03/06/2025  21:46:52.458057	-5.607878E-1
03/06/2025  21:46:52.458557	-5.826030E-1
03/06/2025  21:46:52.459057	-6.272103E-1
03/06/2025  21:46:52.459557	-6.727943E-1
03/06/2025  21:46:52.460057	-6.952608E-1
03/06/2025  21:46:52.460557	-7.284720E-1
03/06/2025  21:46:52.461057	-7.346584E-1
03/06/2025  21:46:52.461557	-7.721025E-1
03/06/2025  21:46:52.462057	-7.861033E-1
03/06/2025  21:46:52.462557	-8.010809E-1
03/06/2025  21:46:52.463057	-7.838241E-1
03/06/2025  21:46:52.463557	-7.714513E-1
03/06/2025  21:46:52.464057	-7.887081E-1
03/06/2025  21:46:52.464557	-7.405192E-1
03/06/2025  21:46:52.465057	-7.187040E-1
03/06/2025  21:46:52.465557	-7.020984E-1
03/06/2025  21:46:52.466057	-6.027902E-1
03/06/2025  21:46:52.466557	-6.014878E-1
03/06/2025  21:46:52.467057	-5.646950E-1
03/06/2025  21:46:52.467557	-5.399493E-1
03/06/2025  21:46:52.468057	-5.031565E-1
03/06/2025  21:46:52.468557	-4.653868E-1
03/06/2025  21:46:52.469057	-4.207796E-1
03/06/2025  21:46:52.469557	-3.657531E-1
03/06/2025  21:46:52.470057	-3.569619E-1
03/06/2025  21:46:52.470557	-3.175642E-1
03/06/2025  21:46:52.471057	-3.449147E-1
03/06/2025  21:46:52.471557	-2.837018E-1
03/06/2025  21:46:52.472057	-2.784922E-1
03/06/2025  21:46:52.472557	-2.540721E-1
03/06/2025  21:46:52.473057	-2.299777E-1
03/06/2025  21:46:52.473557	-2.511417E-1
03/06/2025  21:46:52.474057	-2.573281E-1
03/06/2025  21:46:52.474557	-2.902138E-1
03/06/2025  21:46:52.475057	-3.094242E-1
03/06/2025  21:46:52.475557	-3.221226E-1
03/06/2025  21:46:52.476057	-3.611947E-1
03/06/2025  21:46:52.476557	-4.211052E-1
03/06/2025  21:46:52.477057	-4.592004E-1
03/06/2025  21:46:52.477557	-4.637588E-1
03/06/2025  21:46:52.478057	-5.236693E-1
03/06/2025  21:46:52.478557	-5.744630E-1
03/06/2025  21:46:52.479057	-6.340479E-1
03/06/2025  21:46:52.479557	-6.688871E-1
03/06/2025  21:46:52.480057	-6.897256E-1
03/06/2025  21:46:52.480557	-6.962376E-1
03/06/2025  21:46:52.481057	-7.232624E-1
03/06/2025  21:46:52.481557	-7.297744E-1
03/06/2025  21:46:52.482057	-7.489848E-1
03/06/2025  21:46:52.482557	-7.346584E-1
03/06/2025  21:46:52.483057	-7.431240E-1
03/06/2025  21:46:52.483557	-7.343328E-1
03/06/2025  21:46:52.484057	-7.147968E-1
03/06/2025  21:46:52.484557	-6.793063E-1
03/06/2025  21:46:52.485057	-6.718175E-1
03/06/2025  21:46:52.485557	-6.610727E-1
03/06/2025  21:46:52.486057	-6.301407E-1
03/06/2025  21:46:52.486557	-5.650206E-1
03/06/2025  21:46:52.487057	-5.096685E-1
03/06/2025  21:46:52.487557	-5.012029E-1
03/06/2025  21:46:52.488057	-4.289196E-1
03/06/2025  21:46:52.488557	-4.064532E-1
03/06/2025  21:46:52.489057	-3.797539E-1
03/06/2025  21:46:52.489557	-3.152850E-1
03/06/2025  21:46:52.490057	-3.107266E-1
03/06/2025  21:46:52.490557	-2.706778E-1
03/06/2025  21:46:52.491057	-2.416993E-1
03/06/2025  21:46:52.491557	-2.293265E-1
03/06/2025  21:46:52.492057	-2.169537E-1
03/06/2025  21:46:52.492557	-2.446297E-1
03/06/2025  21:46:52.493057	-2.397457E-1
03/06/2025  21:46:52.493557	-2.306289E-1
03/06/2025  21:46:52.494057	-2.088137E-1
03/06/2025  21:46:52.494557	-2.303033E-1
03/06/2025  21:46:52.495057	-2.784922E-1
03/06/2025  21:46:52.495557	-2.973770E-1
03/06/2025  21:46:52.496057	-3.497987E-1
03/06/2025  21:46:52.496557	-4.041739E-1
03/06/2025  21:46:52.497057	-4.259892E-1
03/06/2025  21:46:52.497557	-4.810157E-1
03/06/2025  21:46:52.498057	-5.204133E-1
03/06/2025  21:46:52.498557	-5.288789E-1
03/06/2025  21:46:52.499057	-5.565550E-1
03/06/2025  21:46:52.499557	-6.574911E-1
03/06/2025  21:46:52.500057	-6.574911E-1
03/06/2025  21:46:52.500557	-6.942840E-1
03/06/2025  21:46:52.501057	-7.105640E-1
03/06/2025  21:46:52.501557	-7.301000E-1
03/06/2025  21:46:52.502057	-7.118664E-1
03/06/2025  21:46:52.502557	-7.330304E-1
03/06/2025  21:46:52.503057	-7.284720E-1
03/06/2025  21:46:52.503557	-7.160992E-1
03/06/2025  21:46:52.504057	-7.014472E-1
03/06/2025  21:46:52.504557	-6.757247E-1
03/06/2025  21:46:52.505057	-6.620495E-1
03/06/2025  21:46:52.505557	-6.229775E-1
03/06/2025  21:46:52.506057	-5.806494E-1
03/06/2025  21:46:52.506557	-5.184597E-1
03/06/2025  21:46:52.507057	-4.999005E-1
03/06/2025  21:46:52.507557	-4.663636E-1
03/06/2025  21:46:52.508057	-4.240356E-1
03/06/2025  21:46:52.508557	-3.843123E-1
03/06/2025  21:46:52.509057	-3.289602E-1
03/06/2025  21:46:52.509557	-2.999818E-1
03/06/2025  21:46:52.510057	-2.622121E-1
03/06/2025  21:46:52.510557	-2.416993E-1
03/06/2025  21:46:52.511057	-1.922080E-1
03/06/2025  21:46:52.511557	-1.889520E-1
03/06/2025  21:46:52.512057	-1.915568E-1
03/06/2025  21:46:52.512557	-1.765792E-1
03/06/2025  21:46:52.513057	-1.948128E-1
03/06/2025  21:46:52.513557	-1.974177E-1
03/06/2025  21:46:52.514057	-2.146745E-1
03/06/2025  21:46:52.514557	-2.527697E-1
03/06/2025  21:46:52.515057	-2.703522E-1
03/06/2025  21:46:52.515557	-2.866322E-1
03/06/2025  21:46:52.516057	-2.915162E-1
03/06/2025  21:46:52.516557	-3.527291E-1
03/06/2025  21:46:52.517057	-4.044996E-1
03/06/2025  21:46:52.517557	-4.533396E-1
03/06/2025  21:46:52.518057	-4.787365E-1
03/06/2025  21:46:52.518557	-5.096685E-1
03/06/2025  21:46:52.519057	-5.477638E-1
03/06/2025  21:46:52.519557	-5.953014E-1
03/06/2025  21:46:52.520057	-6.262335E-1
03/06/2025  21:46:52.520557	-6.431647E-1
03/06/2025  21:46:52.521057	-6.721431E-1
03/06/2025  21:46:52.521557	-6.991680E-1
03/06/2025  21:46:52.522057	-7.160992E-1
03/06/2025  21:46:52.522557	-6.972144E-1
03/06/2025  21:46:52.523057	-6.600959E-1
03/06/2025  21:46:52.523557	-6.675847E-1
03/06/2025  21:46:52.524057	-6.503279E-1
03/06/2025  21:46:52.524557	-6.180935E-1
03/06/2025  21:46:52.525057	-6.057206E-1
03/06/2025  21:46:52.525557	-5.822774E-1
03/06/2025  21:46:52.526057	-5.422285E-1
03/06/2025  21:46:52.526557	-4.950165E-1
03/06/2025  21:46:52.527057	-4.526884E-1
03/06/2025  21:46:52.527557	-4.044996E-1
03/06/2025  21:46:52.528057	-4.012435E-1
03/06/2025  21:46:52.528557	-3.706371E-1
03/06/2025  21:46:52.529057	-3.165874E-1
03/06/2025  21:46:52.529557	-2.794690E-1
03/06/2025  21:46:52.530057	-1.876496E-1
03/06/2025  21:46:52.530557	-1.974177E-1
03/06/2025  21:46:52.531057	-1.671368E-1
03/06/2025  21:46:52.531557	-1.518336E-1
03/06/2025  21:46:52.532057	-1.430424E-1
03/06/2025  21:46:52.532557	-1.371816E-1
03/06/2025  21:46:52.533057	-1.492288E-1
03/06/2025  21:46:52.533557	-1.632296E-1
03/06/2025  21:46:52.534057	-1.694160E-1
03/06/2025  21:46:52.534557	-1.948128E-1
03/06/2025  21:46:52.535057	-2.130465E-1
03/06/2025  21:46:52.535557	-2.446297E-1
03/06/2025  21:46:52.536057	-2.827250E-1
03/06/2025  21:46:52.536557	-3.217970E-1
03/06/2025  21:46:52.537057	-3.556595E-1
03/06/2025  21:46:52.537557	-3.921267E-1
03/06/2025  21:46:52.538057	-4.298964E-1
03/06/2025  21:46:52.538557	-4.608284E-1
03/06/2025  21:46:52.539057	-5.005517E-1
03/06/2025  21:46:52.539557	-5.204133E-1
03/06/2025  21:46:52.540057	-5.513454E-1
03/06/2025  21:46:52.540557	-5.705558E-1
03/06/2025  21:46:52.541057	-6.018134E-1
03/06/2025  21:46:52.541557	-6.164655E-1
03/06/2025  21:46:52.542057	-6.239543E-1
03/06/2025  21:46:52.542557	-6.613983E-1
03/06/2025  21:46:52.543057	-6.581423E-1
03/06/2025  21:46:52.543557	-6.281871E-1
03/06/2025  21:46:52.544057	-5.946502E-1
03/06/2025  21:46:52.544557	-5.640438E-1
03/06/2025  21:46:52.545057	-5.461358E-1
03/06/2025  21:46:52.545557	-5.129245E-1
03/06/2025  21:46:52.546057	-4.738525E-1
03/06/2025  21:46:52.546557	-3.970107E-1
03/06/2025  21:46:52.547057	-3.924523E-1
03/06/2025  21:46:52.547557	-3.618459E-1
03/06/2025  21:46:52.548057	-3.217970E-1
03/06/2025  21:46:52.548557	-2.814226E-1
03/06/2025  21:46:52.549057	-2.443041E-1
03/06/2025  21:46:52.549557	-2.198841E-1
03/06/2025  21:46:52.550057	-1.869984E-1
03/06/2025  21:46:52.550557	-1.469496E-1
03/06/2025  21:46:52.551057	-9.680710E-2
03/06/2025  21:46:52.551557	-7.499187E-2
03/06/2025  21:46:52.552057	-7.271267E-2
03/06/2025  21:46:52.552557	-5.024624E-2
03/06/2025  21:46:52.553057	-4.796703E-2
03/06/2025  21:46:52.553557	-6.001425E-2
03/06/2025  21:46:52.554057	-6.033985E-2
03/06/2025  21:46:52.554557	-8.313189E-2
03/06/2025  21:46:52.555057	-1.023423E-1
03/06/2025  21:46:52.555557	-1.495544E-1
03/06/2025  21:46:52.556057	-1.671368E-1
03/06/2025  21:46:52.556557	-2.501649E-1
03/06/2025  21:46:52.557057	-2.755618E-1
03/06/2025  21:46:52.557557	-3.022610E-1
03/06/2025  21:46:52.558057	-3.315650E-1
03/06/2025  21:46:52.558557	-3.325418E-1
03/06/2025  21:46:52.559057	-3.924523E-1
03/06/2025  21:46:52.559557	-4.269660E-1
03/06/2025  21:46:52.560057	-4.481300E-1
03/06/2025  21:46:52.560557	-4.784109E-1
03/06/2025  21:46:52.561057	-4.927373E-1
03/06/2025  21:46:52.561557	-4.979469E-1
03/06/2025  21:46:52.562057	-5.220413E-1
03/06/2025  21:46:52.562557	-5.295301E-1
03/06/2025  21:46:52.563057	-5.165061E-1
03/06/2025  21:46:52.563557	-4.888301E-1
03/06/2025  21:46:52.564057	-4.836205E-1
03/06/2025  21:46:52.564557	-4.660380E-1
03/06/2025  21:46:52.565057	-4.523628E-1
03/06/2025  21:46:52.565557	-4.018947E-1
03/06/2025  21:46:52.566057	-4.158956E-1
03/06/2025  21:46:52.566557	-3.240762E-1
03/06/2025  21:46:52.567057	-2.937954E-1
03/06/2025  21:46:52.567557	-2.439785E-1
03/06/2025  21:46:52.568057	-1.674624E-1
03/06/2025  21:46:52.568557	-1.772304E-1
03/06/2025  21:46:52.569057	-1.121103E-1
03/06/2025  21:46:52.569557	-6.750306E-2
03/06/2025  21:46:52.570057	-4.243183E-2
03/06/2025  21:46:52.570557	-2.582620E-2
03/06/2025  21:46:52.571057	-7.592576E-3
03/06/2025  21:46:52.571557	5.431443E-3
03/06/2025  21:46:52.572057	7.059445E-3
03/06/2025  21:46:52.572557	7.283074E-2
03/06/2025  21:46:52.573057	3.506109E-2
03/06/2025  21:46:52.573557	2.268827E-2
03/06/2025  21:46:52.574057	2.920028E-2
03/06/2025  21:46:52.574557	2.501039E-3
03/06/2025  21:46:52.575057	2.985148E-2
03/06/2025  21:46:52.575557	-6.941375E-3
03/06/2025  21:46:52.576057	-4.503663E-2
03/06/2025  21:46:52.576557	-8.541109E-2
03/06/2025  21:46:52.577057	-1.345768E-1
03/06/2025  21:46:52.577557	-1.606248E-1
03/06/2025  21:46:52.578057	-2.263961E-1
03/06/2025  21:46:52.578557	-2.410481E-1
03/06/2025  21:46:52.579057	-2.810970E-1
03/06/2025  21:46:52.579557	-3.061682E-1
03/06/2025  21:46:52.580057	-3.185410E-1
03/06/2025  21:46:52.580557	-3.813819E-1
03/06/2025  21:46:52.581057	-3.817075E-1
03/06/2025  21:46:52.581557	-4.194772E-1
03/06/2025  21:46:52.582057	-4.012435E-1
03/06/2025  21:46:52.582557	-4.031971E-1
03/06/2025  21:46:52.583057	-4.044996E-1
03/06/2025  21:46:52.583557	-3.826843E-1
03/06/2025  21:46:52.584057	-3.774747E-1
03/06/2025  21:46:52.584557	-3.507755E-1
03/06/2025  21:46:52.585057	-3.429611E-1
03/06/2025  21:46:52.585557	-3.139826E-1
03/06/2025  21:46:52.586057	-2.869578E-1
03/06/2025  21:46:52.586557	-2.332337E-1
03/06/2025  21:46:52.587057	-1.576944E-1
03/06/2025  21:46:52.587557	-1.622528E-1
03/06/2025  21:46:52.588057	-1.055983E-1
03/06/2025  21:46:52.588557	-6.815426E-2
03/06/2025  21:46:52.589057	-2.452380E-2
03/06/2025  21:46:52.589557	2.464187E-2
03/06/2025  21:46:52.590057	5.785312E-2
03/06/2025  21:46:52.590557	8.943636E-2
03/06/2025  21:46:52.591057	1.161356E-1
03/06/2025  21:46:52.591557	1.561845E-1
03/06/2025  21:46:52.592057	9.627397E-2
03/06/2025  21:46:52.592557	1.552077E-1
03/06/2025  21:46:52.593057	1.389276E-1
03/06/2025  21:46:52.593557	1.164612E-1
03/06/2025  21:46:52.594057	1.236244E-1
03/06/2025  21:46:52.594557	7.445874E-2
03/06/2025  21:46:52.595057	6.403953E-2
03/06/2025  21:46:52.595557	3.506109E-2
03/06/2025  21:46:52.596057	4.780242E-3
03/06/2025  21:46:52.596557	-4.662172E-3
03/06/2025  21:46:52.597057	-4.308303E-2
03/06/2025  21:46:52.597557	-9.550470E-2
03/06/2025  21:46:52.598057	-1.489032E-1
03/06/2025  21:46:52.598557	-1.752768E-1
03/06/2025  21:46:52.599057	-2.150001E-1
03/06/2025  21:46:52.599557	-2.641657E-1
03/06/2025  21:46:52.600057	-2.833762E-1
03/06/2025  21:46:52.600557	-3.058426E-1
03/06/2025  21:46:52.601057	-3.012842E-1
03/06/2025  21:46:52.601557	-3.344954E-1
03/06/2025  21:46:52.602057	-3.458915E-1
03/06/2025  21:46:52.602557	-3.527291E-1
03/06/2025  21:46:52.603057	-3.416587E-1
03/06/2025  21:46:52.603557	-2.791434E-1
03/06/2025  21:46:52.604057	-3.025866E-1
03/06/2025  21:46:52.604557	-2.755618E-1
03/06/2025  21:46:52.605057	-2.400713E-1
03/06/2025  21:46:52.605557	-2.182561E-1
03/06/2025  21:46:52.606057	-1.720208E-1
03/06/2025  21:46:52.606557	-1.410888E-1
03/06/2025  21:46:52.607057	-9.680710E-2
03/06/2025  21:46:52.607557	-6.131665E-2
03/06/2025  21:46:52.608057	8.730365E-4
03/06/2025  21:46:52.608557	-9.220578E-3
03/06/2025  21:46:52.609057	7.217954E-2
03/06/2025  21:46:52.609557	9.432037E-2
03/06/2025  21:46:52.610057	1.496725E-1
03/06/2025  21:46:52.610557	1.558589E-1
03/06/2025  21:46:52.611057	1.854885E-1
03/06/2025  21:46:52.611557	2.200022E-1
03/06/2025  21:46:52.612057	2.294446E-1
03/06/2025  21:46:52.612557	2.313982E-1
03/06/2025  21:46:52.613057	2.196766E-1
03/06/2025  21:46:52.613557	1.988381E-1
03/06/2025  21:46:52.614057	1.910237E-1
03/06/2025  21:46:52.614557	1.503237E-1
03/06/2025  21:46:52.615057	1.216708E-1
03/06/2025  21:46:52.615557	1.288340E-1
03/06/2025  21:46:52.616057	6.501633E-2
03/06/2025  21:46:52.616557	3.310748E-2
03/06/2025  21:46:52.617057	-4.471103E-2
03/06/2025  21:46:52.617557	-5.643265E-2
03/06/2025  21:46:52.618057	-7.629428E-2
03/06/2025  21:46:52.618557	-1.326232E-1
03/06/2025  21:46:52.619057	-1.648576E-1
03/06/2025  21:46:52.619557	-1.957896E-1
03/06/2025  21:46:52.620057	-2.150001E-1
03/06/2025  21:46:52.620557	-2.823994E-1
03/06/2025  21:46:52.621057	-2.895626E-1
03/06/2025  21:46:52.621557	-3.244018E-1
03/06/2025  21:46:52.622057	-3.302626E-1
03/06/2025  21:46:52.622557	-3.318906E-1
03/06/2025  21:46:52.623057	-3.406819E-1
03/06/2025  21:46:52.623557	-3.374259E-1
03/06/2025  21:46:52.624057	-3.195178E-1
03/06/2025  21:46:52.624557	-2.918418E-1
03/06/2025  21:46:52.625057	-2.602585E-1
03/06/2025  21:46:52.625557	-2.387689E-1
03/06/2025  21:46:52.626057	-1.961152E-1
03/06/2025  21:46:52.626557	-1.775560E-1
03/06/2025  21:46:52.627057	-1.319720E-1
03/06/2025  21:46:52.627557	-9.062070E-2
03/06/2025  21:46:52.628057	-6.978227E-2
03/06/2025  21:46:52.628557	-4.894384E-2
03/06/2025  21:46:52.629057	-4.010971E-3
03/06/2025  21:46:52.629557	4.613150E-2
03/06/2025  21:46:52.630057	6.110912E-2
03/06/2025  21:46:52.630557	7.120274E-2
03/06/2025  21:46:52.631057	1.050652E-1
03/06/2025  21:46:52.631557	1.109260E-1
03/06/2025  21:46:52.632057	1.519517E-1
03/06/2025  21:46:52.632557	1.379508E-1
03/06/2025  21:46:52.633057	1.164612E-1
03/06/2025  21:46:52.633557	1.011580E-1
03/06/2025  21:46:52.634057	7.836595E-2
03/06/2025  21:46:52.634557	6.436513E-2
03/06/2025  21:46:52.635057	4.743390E-2
03/06/2025  21:46:52.635557	1.198637E-3
03/06/2025  21:46:52.636057	-4.764143E-2
03/06/2025  21:46:52.636557	-7.206147E-2
03/06/2025  21:46:52.637057	-1.134127E-1
03/06/2025  21:46:52.637557	-1.482520E-1
03/06/2025  21:46:52.638057	-2.058833E-1
03/06/2025  21:46:52.638557	-2.371409E-1
03/06/2025  21:46:52.639057	-2.977026E-1
03/06/2025  21:46:52.639557	-3.260298E-1
03/06/2025  21:46:52.640057	-3.514267E-1
03/06/2025  21:46:52.640557	-4.080812E-1
03/06/2025  21:46:52.641057	-4.214308E-1
03/06/2025  21:46:52.641557	-4.276172E-1
03/06/2025  21:46:52.642057	-4.637588E-1
03/06/2025  21:46:52.642557	-4.751549E-1
03/06/2025  21:46:52.643057	-4.842717E-1
03/06/2025  21:46:52.643557	-4.670148E-1
03/06/2025  21:46:52.644057	-4.217564E-1
03/06/2025  21:46:52.644557	-4.451996E-1
03/06/2025  21:46:52.645057	-4.165468E-1
03/06/2025  21:46:52.645557	-3.944059E-1
03/06/2025  21:46:52.646057	-3.540315E-1
03/06/2025  21:46:52.646557	-3.087730E-1
03/06/2025  21:46:52.647057	-2.977026E-1
03/06/2025  21:46:52.647557	-2.534209E-1
03/06/2025  21:46:52.648057	-2.091393E-1
03/06/2025  21:46:52.648557	-1.850448E-1
03/06/2025  21:46:52.649057	-1.664856E-1
03/06/2025  21:46:52.649557	-1.147151E-1
03/06/2025  21:46:52.650057	-1.007143E-1
03/06/2025  21:46:52.650557	-8.899269E-2
03/06/2025  21:46:52.651057	-1.084858E-2
03/06/2025  21:46:52.651557	-5.285104E-2
03/06/2025  21:46:52.652057	-4.047822E-2
03/06/2025  21:46:52.652557	-3.657102E-2
03/06/2025  21:46:52.653057	-5.122304E-2
03/06/2025  21:46:52.653557	-6.392146E-2
03/06/2025  21:46:52.654057	-7.401507E-2
03/06/2025  21:46:52.654557	-1.023423E-1
03/06/2025  21:46:52.655057	-1.176455E-1
03/06/2025  21:46:52.655557	-1.541128E-1
03/06/2025  21:46:52.656057	-1.967664E-1
03/06/2025  21:46:52.656557	-2.573281E-1
03/06/2025  21:46:52.657057	-2.885858E-1
03/06/2025  21:46:52.657557	-3.393795E-1
03/06/2025  21:46:52.658057	-3.670555E-1
03/06/2025  21:46:52.658557	-4.132908E-1
03/06/2025  21:46:52.659057	-4.598516E-1
03/06/2025  21:46:52.659557	-5.080405E-1
03/06/2025  21:46:52.660057	-5.181341E-1
03/06/2025  21:46:52.660557	-5.181341E-1
03/06/2025  21:46:52.661057	-5.526478E-1
03/06/2025  21:46:52.661557	-5.796726E-1
03/06/2025  21:46:52.662057	-6.119071E-1
03/06/2025  21:46:52.662557	-6.307919E-1
03/06/2025  21:46:52.663057	-6.337223E-1
03/06/2025  21:46:52.663557	-6.301407E-1
03/06/2025  21:46:52.664057	-6.083254E-1
03/06/2025  21:46:52.664557	-5.728350E-1
03/06/2025  21:46:52.665057	-5.656718E-1
03/06/2025  21:46:52.665557	-5.386469E-1
03/06/2025  21:46:52.666057	-5.174829E-1
03/06/2025  21:46:52.666557	-4.621308E-1
03/06/2025  21:46:52.667057	-4.412924E-1
03/06/2025  21:46:52.667557	-3.944059E-1
03/06/2025  21:46:52.668057	-3.436123E-1
03/06/2025  21:46:52.668557	-3.169130E-1
03/06/2025  21:46:52.669057	-2.726314E-1
03/06/2025  21:46:52.669557	-2.247681E-1
03/06/2025  21:46:52.670057	-2.130465E-1
03/06/2025  21:46:52.670557	-2.003481E-1
03/06/2025  21:46:52.671057	-1.651832E-1
03/06/2025  21:46:52.671557	-1.528104E-1
03/06/2025  21:46:52.672057	-1.502056E-1
03/06/2025  21:46:52.672557	-1.313208E-1
03/06/2025  21:46:52.673057	-1.664856E-1
03/06/2025  21:46:52.673557	-1.694160E-1
03/06/2025  21:46:52.674057	-2.013249E-1
03/06/2025  21:46:52.674557	-2.052321E-1
03/06/2025  21:46:52.675057	-2.309545E-1
03/06/2025  21:46:52.675557	-2.495137E-1
03/06/2025  21:46:52.676057	-3.045402E-1
03/06/2025  21:46:52.676557	-3.462171E-1
03/06/2025  21:46:52.677057	-3.611947E-1
03/06/2025  21:46:52.677557	-4.578980E-1
03/06/2025  21:46:52.678057	-4.969701E-1
03/06/2025  21:46:52.678557	-5.217157E-1
03/06/2025  21:46:52.679057	-5.396237E-1
03/06/2025  21:46:52.679557	-5.604622E-1
03/06/2025  21:46:52.680057	-6.229775E-1
03/06/2025  21:46:52.680557	-6.574911E-1
03/06/2025  21:46:52.681057	-6.721431E-1
03/06/2025  21:46:52.681557	-7.043776E-1
03/06/2025  21:46:52.682057	-6.968888E-1
03/06/2025  21:46:52.682557	-7.115408E-1
03/06/2025  21:46:52.683057	-7.004704E-1
03/06/2025  21:46:52.683557	-6.819112E-1
03/06/2025  21:46:52.684057	-6.780039E-1
03/06/2025  21:46:52.684557	-6.685615E-1
03/06/2025  21:46:52.685057	-6.822368E-1
03/06/2025  21:46:52.685557	-6.366527E-1
03/06/2025  21:46:52.686057	-5.777190E-1
03/06/2025  21:46:52.686557	-5.279021E-1
03/06/2025  21:46:52.687057	-5.282277E-1
03/06/2025  21:46:52.687557	-4.556188E-1
03/06/2025  21:46:52.688057	-4.201284E-1
03/06/2025  21:46:52.688557	-3.664043E-1
03/06/2025  21:46:52.689057	-3.006330E-1
03/06/2025  21:46:52.689557	-2.947722E-1
03/06/2025  21:46:52.690057	-2.485369E-1
03/06/2025  21:46:52.690557	-2.146745E-1
03/06/2025  21:46:52.691057	-1.928592E-1
03/06/2025  21:46:52.691557	-1.817888E-1
03/06/2025  21:46:52.692057	-2.039297E-1
03/06/2025  21:46:52.692557	-1.951384E-1
03/06/2025  21:46:52.693057	-1.840680E-1
03/06/2025  21:46:52.693557	-1.495544E-1
03/06/2025  21:46:52.694057	-1.996969E-1
03/06/2025  21:46:52.694557	-2.423505E-1
03/06/2025  21:46:52.695057	-2.781666E-1
03/06/2025  21:46:52.695557	-2.970514E-1
03/06/2025  21:46:52.696057	-2.905394E-1
03/06/2025  21:46:52.696557	-3.778003E-1
03/06/2025  21:46:52.697057	-4.347804E-1
03/06/2025  21:46:52.697557	-4.520372E-1
03/06/2025  21:46:52.698057	-5.152037E-1
03/06/2025  21:46:52.698557	-5.409261E-1
03/06/2025  21:46:52.699057	-6.184191E-1
03/06/2025  21:46:52.699557	-6.529327E-1
03/06/2025  21:46:52.700057	-6.874464E-1
03/06/2025  21:46:52.700557	-6.998192E-1
03/06/2025  21:46:52.701057	-7.086104E-1
03/06/2025  21:46:52.701557	-7.395424E-1
03/06/2025  21:46:52.702057	-7.590785E-1
03/06/2025  21:46:52.702557	-7.603809E-1
03/06/2025  21:46:52.703057	-7.512641E-1
03/06/2025  21:46:52.703557	-7.209832E-1
03/06/2025  21:46:52.704057	-7.047032E-1
03/06/2025  21:46:52.704557	-7.060056E-1
03/06/2025  21:46:52.705057	-6.877720E-1
03/06/2025  21:46:52.705557	-6.513047E-1
03/06/2025  21:46:52.706057	-6.363271E-1
03/06/2025  21:46:52.706557	-5.682766E-1
03/06/2025  21:46:52.707057	-5.275765E-1
03/06/2025  21:46:52.707557	-4.813413E-1
03/06/2025  21:46:52.708057	-4.181748E-1
03/06/2025  21:46:52.708557	-4.165468E-1
03/06/2025  21:46:52.709057	-3.774747E-1
03/06/2025  21:46:52.709557	-3.247274E-1
03/06/2025  21:46:52.710057	-3.055170E-1
03/06/2025  21:46:52.710557	-2.648169E-1
03/06/2025  21:46:52.711057	-2.524441E-1
03/06/2025  21:46:52.711557	-2.309545E-1
03/06/2025  21:46:52.712057	-2.088137E-1
03/06/2025  21:46:52.712557	-1.664856E-1
03/06/2025  21:46:52.713057	-2.810970E-1
03/06/2025  21:46:52.713557	-2.319313E-1
03/06/2025  21:46:52.714057	-2.540721E-1
03/06/2025  21:46:52.714557	-2.794690E-1
03/06/2025  21:46:52.715057	-2.713290E-1
03/06/2025  21:46:52.715557	-3.312394E-1
03/06/2025  21:46:52.716057	-3.690091E-1
03/06/2025  21:46:52.716557	-4.165468E-1
03/06/2025  21:46:52.717057	-4.487812E-1
03/06/2025  21:46:52.717557	-4.624564E-1
03/06/2025  21:46:52.718057	-5.129245E-1
03/06/2025  21:46:52.718557	-5.656718E-1
03/06/2025  21:46:52.719057	-6.122327E-1
03/06/2025  21:46:52.719557	-6.285127E-1
03/06/2025  21:46:52.720057	-6.597703E-1
03/06/2025  21:46:52.720557	-6.962376E-1
03/06/2025  21:46:52.721057	-7.213088E-1
03/06/2025  21:46:52.721557	-7.320536E-1
03/06/2025  21:46:52.722057	-7.180528E-1
03/06/2025  21:46:52.722557	-7.577761E-1
03/06/2025  21:46:52.723057	-7.603809E-1
03/06/2025  21:46:52.723557	-7.450776E-1
03/06/2025  21:46:52.724057	-7.261928E-1
03/06/2025  21:46:52.724557	-6.718175E-1
03/06/2025  21:46:52.725057	-6.815856E-1
03/06/2025  21:46:52.725557	-6.630263E-1
03/06/2025  21:46:52.726057	-6.109302E-1
03/06/2025  21:46:52.726557	-5.594854E-1
03/06/2025  21:46:52.727057	-5.125989E-1
03/06/2025  21:46:52.727557	-5.008773E-1
03/06/2025  21:46:52.728057	-4.438972E-1
03/06/2025  21:46:52.728557	-4.116628E-1
03/06/2025  21:46:52.729057	-3.530547E-1
03/06/2025  21:46:52.729557	-3.074706E-1
03/06/2025  21:46:52.730057	-2.934698E-1
03/06/2025  21:46:52.730557	-2.631889E-1
03/06/2025  21:46:52.731057	-2.325825E-1
03/06/2025  21:46:52.731557	-2.351873E-1
03/06/2025  21:46:52.732057	-2.153257E-1
03/06/2025  21:46:52.732557	-2.117441E-1
03/06/2025  21:46:52.733057	-2.208609E-1
03/06/2025  21:46:52.733557	-2.462577E-1
03/06/2025  21:46:52.734057	-2.374665E-1
03/06/2025  21:46:52.734557	-2.931442E-1
03/06/2025  21:46:52.735057	-3.019354E-1
03/06/2025  21:46:52.735557	-3.410075E-1
03/06/2025  21:46:52.736057	-3.683579E-1
03/06/2025  21:46:52.736557	-3.944059E-1
03/06/2025  21:46:52.737057	-4.461764E-1
03/06/2025  21:46:52.737557	-5.044589E-1
03/06/2025  21:46:52.738057	-5.435310E-1
03/06/2025  21:46:52.738557	-5.721838E-1
03/06/2025  21:46:52.739057	-5.923710E-1
03/06/2025  21:46:52.739557	-6.307919E-1
03/06/2025  21:46:52.740057	-6.627007E-1
03/06/2025  21:46:52.740557	-6.727943E-1
03/06/2025  21:46:52.741057	-6.916792E-1
03/06/2025  21:46:52.741557	-7.613577E-1
03/06/2025  21:46:52.742057	-7.496360E-1
03/06/2025  21:46:52.742557	-7.483336E-1
03/06/2025  21:46:52.743057	-7.607065E-1
03/06/2025  21:46:52.743557	-7.073080E-1
03/06/2025  21:46:52.744057	-7.193552E-1
03/06/2025  21:46:52.744557	-6.877720E-1
03/06/2025  21:46:52.745057	-6.757247E-1
03/06/2025  21:46:52.745557	-6.506535E-1
03/06/2025  21:46:52.746057	-5.734862E-1
03/06/2025  21:46:52.746557	-5.500430E-1
03/06/2025  21:46:52.747057	-5.067381E-1
03/06/2025  21:46:52.747557	-4.705964E-1
03/06/2025  21:46:52.748057	-4.250124E-1
03/06/2025  21:46:52.748557	-4.061276E-1
03/06/2025  21:46:52.749057	-3.830099E-1
03/06/2025  21:46:52.749557	-3.344954E-1
03/06/2025  21:46:52.750057	-3.175642E-1
03/06/2025  21:46:52.750557	-2.430017E-1
03/06/2025  21:46:52.751057	-2.485369E-1
03/06/2025  21:46:52.751557	-2.410481E-1
03/06/2025  21:46:52.752057	-2.260705E-1
03/06/2025  21:46:52.752557	-2.150001E-1
03/06/2025  21:46:52.753057	-2.123953E-1
03/06/2025  21:46:52.753557	-2.260705E-1
03/06/2025  21:46:52.754057	-2.472345E-1
03/06/2025  21:46:52.754557	-2.560257E-1
03/06/2025  21:46:52.755057	-2.817482E-1
03/06/2025  21:46:52.755557	-3.022610E-1
03/06/2025  21:46:52.756057	-3.677067E-1
03/06/2025  21:46:52.756557	-4.097092E-1
03/06/2025  21:46:52.757057	-4.435716E-1
03/06/2025  21:46:52.757557	-4.806901E-1
03/06/2025  21:46:52.758057	-5.259485E-1
03/06/2025  21:46:52.758557	-5.598110E-1
03/06/2025  21:46:52.759057	-6.099534E-1
03/06/2025  21:46:52.759557	-6.434903E-1
03/06/2025  21:46:52.760057	-6.594447E-1
03/06/2025  21:46:52.760557	-7.050288E-1
03/06/2025  21:46:52.761057	-7.118664E-1
03/06/2025  21:46:52.761557	-7.496360E-1
03/06/2025  21:46:52.762057	-7.476824E-1
03/06/2025  21:46:52.762557	-7.437752E-1
03/06/2025  21:46:52.763057	-7.522409E-1
03/06/2025  21:46:52.763557	-7.382400E-1
03/06/2025  21:46:52.764057	-7.486592E-1
03/06/2025  21:46:52.764557	-7.174016E-1
03/06/2025  21:46:52.765057	-6.659567E-1
03/06/2025  21:46:52.765557	-6.594447E-1
03/06/2025  21:46:52.766057	-6.311175E-1
03/06/2025  21:46:52.766557	-5.744630E-1
03/06/2025  21:46:52.767057	-5.419029E-1
03/06/2025  21:46:52.767557	-4.904581E-1
03/06/2025  21:46:52.768057	-4.393388E-1
03/06/2025  21:46:52.768557	-4.188260E-1
03/06/2025  21:46:52.769057	-3.826843E-1
03/06/2025  21:46:52.769557	-3.214714E-1
03/06/2025  21:46:52.770057	-3.136570E-1
03/06/2025  21:46:52.770557	-2.723058E-1
03/06/2025  21:46:52.771057	-2.573281E-1
03/06/2025  21:46:52.771557	-2.472345E-1
03/06/2025  21:46:52.772057	-2.254193E-1
03/06/2025  21:46:52.772557	-2.290009E-1
03/06/2025  21:46:52.773057	-2.254193E-1
03/06/2025  21:46:52.773557	-2.521185E-1
03/06/2025  21:46:52.774057	-2.407225E-1
03/06/2025  21:46:52.774557	-2.863066E-1
03/06/2025  21:46:52.775057	-2.876090E-1
03/06/2025  21:46:52.775557	-3.029122E-1
03/06/2025  21:46:52.776057	-3.540315E-1
03/06/2025  21:46:52.776557	-3.957083E-1
03/06/2025  21:46:52.777057	-4.243612E-1
03/06/2025  21:46:52.777557	-4.751549E-1
03/06/2025  21:46:52.778057	-5.155293E-1
03/06/2025  21:46:52.778557	-5.428798E-1
03/06/2025  21:46:52.779057	-5.617646E-1
03/06/2025  21:46:52.779557	-6.154887E-1
03/06/2025  21:46:52.780057	-6.496767E-1
03/06/2025  21:46:52.780557	-6.646543E-1
03/06/2025  21:46:52.781057	-6.923304E-1
03/06/2025  21:46:52.781557	-6.744223E-1
03/06/2025  21:46:52.782057	-7.050288E-1
03/06/2025  21:46:52.782557	-7.174016E-1
03/06/2025  21:46:52.783057	-7.118664E-1
03/06/2025  21:46:52.783557	-7.138200E-1
03/06/2025  21:46:52.784057	-7.174016E-1
03/06/2025  21:46:52.784557	-6.962376E-1
03/06/2025  21:46:52.785057	-6.763759E-1
03/06/2025  21:46:52.785557	-6.431647E-1
03/06/2025  21:46:52.786057	-5.699046E-1
03/06/2025  21:46:52.786557	-5.379957E-1
03/06/2025  21:46:52.787057	-4.927373E-1
03/06/2025  21:46:52.787557	-4.689684E-1
03/06/2025  21:46:52.788057	-4.204540E-1
03/06/2025  21:46:52.788557	-3.924523E-1
03/06/2025  21:46:52.789057	-3.270066E-1
03/06/2025  21:46:52.789557	-3.022610E-1
03/06/2025  21:46:52.790057	-2.856554E-1
03/06/2025  21:46:52.790557	-2.563513E-1
03/06/2025  21:46:52.791057	-2.208609E-1
03/06/2025  21:46:52.791557	-2.377921E-1
03/06/2025  21:46:52.792057	-2.127209E-1
03/06/2025  21:46:52.792557	-1.951384E-1
03/06/2025  21:46:52.793057	-2.211865E-1
03/06/2025  21:46:52.793557	-1.964408E-1
03/06/2025  21:46:52.794057	-2.638401E-1
03/06/2025  21:46:52.794557	-2.846786E-1
03/06/2025  21:46:52.795057	-2.915162E-1
03/06/2025  21:46:52.795557	-3.133314E-1
03/06/2025  21:46:52.796057	-3.514267E-1
03/06/2025  21:46:52.796557	-4.100348E-1
03/06/2025  21:46:52.797057	-4.487812E-1
03/06/2025  21:46:52.797557	-4.777597E-1
03/06/2025  21:46:52.798057	-4.995749E-1
03/06/2025  21:46:52.798557	-5.907430E-1
03/06/2025  21:46:52.799057	-6.096278E-1
03/06/2025  21:46:52.799557	-6.376295E-1
03/06/2025  21:46:52.800057	-6.643287E-1
03/06/2025  21:46:52.800557	-6.666079E-1
03/06/2025  21:46:52.801057	-7.229368E-1
03/06/2025  21:46:52.801557	-7.294488E-1
03/06/2025  21:46:52.802057	-7.388912E-1
03/06/2025  21:46:52.802557	-7.431240E-1
03/06/2025  21:46:52.803057	-7.278208E-1
03/06/2025  21:46:52.803557	-7.095872E-1
03/06/2025  21:46:52.804057	-7.043776E-1
03/06/2025  21:46:52.804557	-6.653055E-1
03/06/2025  21:46:52.805057	-6.503279E-1
03/06/2025  21:46:52.805557	-6.337223E-1
03/06/2025  21:46:52.806057	-6.027902E-1
03/06/2025  21:46:52.806557	-5.633926E-1
03/06/2025  21:46:52.807057	-5.171573E-1
03/06/2025  21:46:52.807557	-4.556188E-1
03/06/2025  21:46:52.808057	-4.168724E-1
03/06/2025  21:46:52.808557	-3.911499E-1
03/06/2025  21:46:52.809057	-3.488219E-1
03/06/2025  21:46:52.809557	-3.051914E-1
03/06/2025  21:46:52.810057	-2.622121E-1
03/06/2025  21:46:52.810557	-2.635145E-1
03/06/2025  21:46:52.811057	-2.332337E-1
03/06/2025  21:46:52.811557	-2.179305E-1
03/06/2025  21:46:52.812057	-2.052321E-1
03/06/2025  21:46:52.812557	-2.032785E-1
03/06/2025  21:46:52.813057	-2.283497E-1
03/06/2025  21:46:52.813557	-2.381177E-1
03/06/2025  21:46:52.814057	-2.433273E-1
03/06/2025  21:46:52.814557	-2.153257E-1
03/06/2025  21:46:52.815057	-2.628633E-1
03/06/2025  21:46:52.815557	-3.012842E-1
03/06/2025  21:46:52.816057	-3.403563E-1
03/06/2025  21:46:52.816557	-4.028715E-1
03/06/2025  21:46:52.817057	-3.683579E-1
03/06/2025  21:46:52.817557	-4.526884E-1
03/06/2025  21:46:52.818057	-5.002261E-1
03/06/2025  21:46:52.818557	-5.298557E-1
03/06/2025  21:46:52.819057	-5.715326E-1
03/06/2025  21:46:52.819557	-6.102790E-1
03/06/2025  21:46:52.820057	-6.565143E-1
03/06/2025  21:46:52.820557	-6.672591E-1
03/06/2025  21:46:52.821057	-7.102384E-1
03/06/2025  21:46:52.821557	-7.157736E-1
03/06/2025  21:46:52.822057	-7.034008E-1
03/06/2025  21:46:52.822557	-7.405192E-1
03/06/2025  21:46:52.823057	-7.274952E-1
03/06/2025  21:46:52.823557	-7.095872E-1
03/06/2025  21:46:52.824057	-6.799575E-1
03/06/2025  21:46:52.824557	-6.600959E-1
03/06/2025  21:46:52.825057	-6.294895E-1
03/06/2025  21:46:52.825557	-6.122327E-1
03/06/2025  21:46:52.826057	-5.672998E-1
03/06/2025  21:46:52.826557	-5.031565E-1
03/06/2025  21:46:52.827057	-5.038077E-1
03/06/2025  21:46:52.827557	-4.565956E-1
03/06/2025  21:46:52.828057	-4.256636E-1
03/06/2025  21:46:52.828557	-3.722651E-1
03/06/2025  21:46:52.829057	-3.159362E-1
03/06/2025  21:46:52.829557	-3.042146E-1
03/06/2025  21:46:52.830057	-2.739338E-1
03/06/2025  21:46:52.830557	-2.394201E-1
03/06/2025  21:46:52.831057	-2.257449E-1
03/06/2025  21:46:52.831557	-1.925336E-1
03/06/2025  21:46:52.832057	-1.902544E-1
03/06/2025  21:46:52.832557	-1.642064E-1
03/06/2025  21:46:52.833057	-1.765792E-1
03/06/2025  21:46:52.833557	-1.655088E-1
03/06/2025  21:46:52.834057	-2.833762E-1
03/06/2025  21:46:52.834557	-2.439785E-1
03/06/2025  21:46:52.835057	-2.719802E-1
03/06/2025  21:46:52.835557	-2.889114E-1
03/06/2025  21:46:52.836057	-3.006330E-1
03/06/2025  21:46:52.836557	-3.970107E-1
03/06/2025  21:46:52.837057	-4.224076E-1
03/06/2025  21:46:52.837557	-4.663636E-1
03/06/2025  21:46:52.838057	-4.989237E-1
03/06/2025  21:46:52.838557	-5.142269E-1
03/06/2025  21:46:52.839057	-5.672998E-1
03/06/2025  21:46:52.839557	-6.213495E-1
03/06/2025  21:46:52.840057	-6.591191E-1
03/06/2025  21:46:52.840557	-6.724687E-1
03/06/2025  21:46:52.841057	-6.884232E-1
03/06/2025  21:46:52.841557	-7.196808E-1
03/06/2025  21:46:52.842057	-7.411704E-1
03/06/2025  21:46:52.842557	-7.323792E-1
03/06/2025  21:46:52.843057	-7.092616E-1
03/06/2025  21:46:52.843557	-7.040520E-1
03/06/2025  21:46:52.844057	-6.894000E-1
03/06/2025  21:46:52.844557	-6.854928E-1
03/06/2025  21:46:52.845057	-6.513047E-1
03/06/2025  21:46:52.845557	-6.063718E-1
03/06/2025  21:46:52.846057	-5.848822E-1
03/06/2025  21:46:52.846557	-5.572062E-1
03/06/2025  21:46:52.847057	-5.018541E-1
03/06/2025  21:46:52.847557	-4.689684E-1
03/06/2025  21:46:52.848057	-4.285940E-1
03/06/2025  21:46:52.848557	-4.178492E-1
03/06/2025  21:46:52.849057	-3.716139E-1
03/06/2025  21:46:52.849557	-3.237506E-1
03/06/2025  21:46:52.850057	-2.771898E-1
03/06/2025  21:46:52.850557	-2.449553E-1
03/06/2025  21:46:52.851057	-2.537465E-1
03/06/2025  21:46:52.851557	-2.377921E-1
03/06/2025  21:46:52.852057	-2.172793E-1
03/06/2025  21:46:52.852557	-2.110929E-1
03/06/2025  21:46:52.853057	-2.192329E-1
03/06/2025  21:46:52.853557	-2.192329E-1
03/06/2025  21:46:52.854057	-2.215121E-1
03/06/2025  21:46:52.854557	-2.543977E-1
03/06/2025  21:46:52.855057	-2.609097E-1
03/06/2025  21:46:52.855557	-3.087730E-1
03/06/2025  21:46:52.856057	-3.774747E-1
03/06/2025  21:46:52.856557	-4.243612E-1
03/06/2025  21:46:52.857057	-4.500836E-1
03/06/2025  21:46:52.857557	-4.692940E-1
03/06/2025  21:46:52.858057	-5.279021E-1
03/06/2025  21:46:52.858557	-5.669742E-1
03/06/2025  21:46:52.859057	-6.096278E-1
03/06/2025  21:46:52.859557	-6.513047E-1
03/06/2025  21:46:52.860057	-6.552119E-1
03/06/2025  21:46:52.860557	-7.014472E-1
03/06/2025  21:46:52.861057	-7.327048E-1
03/06/2025  21:46:52.861557	-7.369376E-1
03/06/2025  21:46:52.862057	-7.447520E-1
03/06/2025  21:46:52.862557	-7.968481E-1
03/06/2025  21:46:52.863057	-7.616833E-1
03/06/2025  21:46:52.863557	-7.480080E-1
03/06/2025  21:46:52.864057	-7.268440E-1
03/06/2025  21:46:52.864557	-6.832136E-1
03/06/2025  21:46:52.865057	-6.780039E-1
03/06/2025  21:46:52.865557	-6.513047E-1
03/06/2025  21:46:52.866057	-5.985574E-1
03/06/2025  21:46:52.866557	-5.656718E-1
03/06/2025  21:46:52.867057	-4.953421E-1
03/06/2025  21:46:52.867557	-4.793877E-1
03/06/2025  21:46:52.868057	-4.357572E-1
03/06/2025  21:46:52.868557	-4.054764E-1
03/06/2025  21:46:52.869057	-3.621715E-1
03/06/2025  21:46:52.869557	-2.986794E-1
03/06/2025  21:46:52.870057	-3.130058E-1
03/06/2025  21:46:52.870557	-2.628633E-1
03/06/2025  21:46:52.871057	-2.508161E-1
03/06/2025  21:46:52.871557	-2.078369E-1
03/06/2025  21:46:52.872057	-2.084881E-1
03/06/2025  21:46:52.872557	-2.179305E-1
03/06/2025  21:46:52.873057	-2.159769E-1
03/06/2025  21:46:52.873557	-2.231401E-1
03/06/2025  21:46:52.874057	-2.140233E-1
03/06/2025  21:46:52.874557	-2.449553E-1
03/06/2025  21:46:52.875057	-2.648169E-1
03/06/2025  21:46:52.875557	-2.967258E-1
03/06/2025  21:46:52.876057	-3.491475E-1
03/06/2025  21:46:52.876557	-4.054764E-1
03/06/2025  21:46:52.877057	-4.578980E-1
03/06/2025  21:46:52.877557	-4.933885E-1
03/06/2025  21:46:52.878057	-5.295301E-1
03/06/2025  21:46:52.878557	-5.555782E-1
03/06/2025  21:46:52.879057	-5.959526E-1
03/06/2025  21:46:52.879557	-6.483743E-1
03/06/2025  21:46:52.880057	-6.646543E-1
03/06/2025  21:46:52.880557	-6.923304E-1
03/06/2025  21:46:52.881057	-7.193552E-1
03/06/2025  21:46:52.881557	-7.209832E-1
03/06/2025  21:46:52.882057	-7.301000E-1
03/06/2025  21:46:52.882557	-7.489848E-1
03/06/2025  21:46:52.883057	-7.349840E-1
03/06/2025  21:46:52.883557	-7.076336E-1
03/06/2025  21:46:52.884057	-7.463800E-1
03/06/2025  21:46:52.884557	-7.213088E-1
03/06/2025  21:46:52.885057	-6.929816E-1
03/06/2025  21:46:52.885557	-6.747479E-1
03/06/2025  21:46:52.886057	-6.128839E-1
03/06/2025  21:46:52.886557	-5.917198E-1
03/06/2025  21:46:52.887057	-5.506942E-1
03/06/2025  21:46:52.887557	-5.161805E-1
03/06/2025  21:46:52.888057	-4.588748E-1
03/06/2025  21:46:52.888557	-4.048252E-1
03/06/2025  21:46:52.889057	-3.735675E-1
03/06/2025  21:46:52.889557	-3.292858E-1
03/06/2025  21:46:52.890057	-3.130058E-1
03/06/2025  21:46:52.890557	-2.794690E-1
03/06/2025  21:46:52.891057	-2.749106E-1
03/06/2025  21:46:52.891557	-2.472345E-1
03/06/2025  21:46:52.892057	-2.316057E-1
03/06/2025  21:46:52.892557	-2.133721E-1
03/06/2025  21:46:52.893057	-1.853704E-1
03/06/2025  21:46:52.893557	-2.482113E-1
03/06/2025  21:46:52.894057	-2.495137E-1
03/06/2025  21:46:52.894557	-2.706778E-1
03/06/2025  21:46:52.895057	-3.120290E-1
03/06/2025  21:46:52.895557	-3.296114E-1
03/06/2025  21:46:52.896057	-3.556595E-1
03/06/2025  21:46:52.896557	-4.080812E-1
03/06/2025  21:46:52.897057	-4.526884E-1
03/06/2025  21:46:52.897557	-4.868765E-1
03/06/2025  21:46:52.898057	-5.220413E-1
03/06/2025  21:46:52.898557	-5.624158E-1
03/06/2025  21:46:52.899057	-6.233031E-1
03/06/2025  21:46:52.899557	-6.522815E-1
03/06/2025  21:46:52.900057	-6.607471E-1
03/06/2025  21:46:52.900557	-6.988424E-1
03/06/2025  21:46:52.901057	-7.232624E-1
03/06/2025  21:46:52.901557	-7.317280E-1
03/06/2025  21:46:52.902057	-7.577761E-1
03/06/2025  21:46:52.902557	-7.219600E-1
03/06/2025  21:46:52.903057	-7.222856E-1
03/06/2025  21:46:52.903557	-7.147968E-1
03/06/2025  21:46:52.904057	-7.020984E-1
03/06/2025  21:46:52.904557	-6.936328E-1
03/06/2025  21:46:52.905057	-6.672591E-1
03/06/2025  21:46:52.905557	-6.597703E-1
03/06/2025  21:46:52.906057	-6.089766E-1
03/06/2025  21:46:52.906557	-5.552526E-1
03/06/2025  21:46:52.907057	-5.122733E-1
03/06/2025  21:46:52.907557	-4.689684E-1
03/06/2025  21:46:52.908057	-4.347804E-1
03/06/2025  21:46:52.908557	-4.061276E-1
03/06/2025  21:46:52.909057	-3.524035E-1
03/06/2025  21:46:52.909557	-3.191922E-1
03/06/2025  21:46:52.910057	-2.788178E-1
03/06/2025  21:46:52.910557	-2.560257E-1
03/06/2025  21:46:52.911057	-2.413737E-1
03/06/2025  21:46:52.911557	-2.221633E-1
03/06/2025  21:46:52.912057	-2.088137E-1
03/06/2025  21:46:52.912557	-2.146745E-1
03/06/2025  21:46:52.913057	-2.254193E-1
03/06/2025  21:46:52.913557	-2.364897E-1
03/06/2025  21:46:52.914057	-2.384433E-1
03/06/2025  21:46:52.914557	-2.527697E-1
03/06/2025  21:46:52.915057	-3.029122E-1
03/06/2025  21:46:52.915557	-3.283090E-1
03/06/2025  21:46:52.916057	-3.703115E-1
03/06/2025  21:46:52.916557	-4.074300E-1
03/06/2025  21:46:52.917057	-4.295708E-1
03/06/2025  21:46:52.917557	-4.800389E-1
03/06/2025  21:46:52.918057	-5.308325E-1
03/06/2025  21:46:52.918557	-5.695790E-1
03/06/2025  21:46:52.919057	-5.806494E-1
03/06/2025  21:46:52.919557	-6.633519E-1
03/06/2025  21:46:52.920057	-6.627007E-1
03/06/2025  21:46:52.920557	-6.952608E-1
03/06/2025  21:46:52.921057	-6.926560E-1
03/06/2025  21:46:52.921557	-7.125176E-1
03/06/2025  21:46:52.922057	-7.558225E-1
03/06/2025  21:46:52.922557	-7.574505E-1
03/06/2025  21:46:52.923057	-7.610321E-1
03/06/2025  21:46:52.923557	-7.467056E-1
03/06/2025  21:46:52.924057	-7.353096E-1
03/06/2025  21:46:52.924557	-7.138200E-1
03/06/2025  21:46:52.925057	-7.017728E-1
03/06/2025  21:46:52.925557	-6.672591E-1
03/06/2025  21:46:52.926057	-6.070230E-1
03/06/2025  21:46:52.926557	-5.712070E-1
03/06/2025  21:46:52.927057	-5.458102E-1
03/06/2025  21:46:52.927557	-4.992493E-1
03/06/2025  21:46:52.928057	-4.530140E-1
03/06/2025  21:46:52.928557	-4.110116E-1
03/06/2025  21:46:52.929057	-3.774747E-1
03/06/2025  21:46:52.929557	-3.413331E-1
03/06/2025  21:46:52.930057	-3.084474E-1
03/06/2025  21:46:52.930557	-2.719802E-1
03/06/2025  21:46:52.931057	-2.397457E-1
03/06/2025  21:46:52.931557	-2.537465E-1
03/06/2025  21:46:52.932057	-2.306289E-1
03/06/2025  21:46:52.932557	-2.163025E-1
03/06/2025  21:46:52.933057	-2.263961E-1
03/06/2025  21:46:52.933557	-2.273729E-1
03/06/2025  21:46:52.934057	-2.514673E-1
03/06/2025  21:46:52.934557	-2.749106E-1
03/06/2025  21:46:52.935057	-2.957490E-1
03/06/2025  21:46:52.935557	-2.599329E-1
03/06/2025  21:46:52.936057	-3.569619E-1
03/06/2025  21:46:52.936557	-4.152444E-1
03/06/2025  21:46:52.937057	-4.533396E-1
03/06/2025  21:46:52.937557	-4.780853E-1
03/06/2025  21:46:52.938057	-4.748293E-1
03/06/2025  21:46:52.938557	-5.546014E-1
03/06/2025  21:46:52.939057	-5.904174E-1
03/06/2025  21:46:52.939557	-6.389319E-1
03/06/2025  21:46:52.940057	-6.672591E-1
03/06/2025  21:46:52.940557	-6.854928E-1
03/06/2025  21:46:52.941057	-7.284720E-1
03/06/2025  21:46:52.941557	-7.554969E-1
03/06/2025  21:46:52.942057	-7.558225E-1
03/06/2025  21:46:52.942557	-7.493104E-1
03/06/2025  21:46:52.943057	-7.242392E-1
03/06/2025  21:46:52.943557	-7.414960E-1
03/06/2025  21:46:52.944057	-7.154480E-1
03/06/2025  21:46:52.944557	-7.056800E-1
03/06/2025  21:46:52.945057	-6.627007E-1
03/06/2025  21:46:52.945557	-6.324199E-1
03/06/2025  21:46:52.946057	-5.861846E-1
03/06/2025  21:46:52.946557	-5.308325E-1
03/06/2025  21:46:52.947057	-4.982725E-1
03/06/2025  21:46:52.947557	-4.484556E-1
03/06/2025  21:46:52.948057	-4.484556E-1
03/06/2025  21:46:52.948557	-4.022203E-1
03/06/2025  21:46:52.949057	-3.690091E-1
03/06/2025  21:46:52.949557	-3.253786E-1
03/06/2025  21:46:52.950057	-2.664450E-1
03/06/2025  21:46:52.950557	-2.762130E-1
03/06/2025  21:46:52.951057	-2.430017E-1
03/06/2025  21:46:52.951557	-2.205353E-1
03/06/2025  21:46:52.952057	-1.993713E-1
03/06/2025  21:46:52.952557	-1.860216E-1
03/06/2025  21:46:52.953057	-2.120697E-1
03/06/2025  21:46:52.953557	-2.270473E-1
03/06/2025  21:46:52.954057	-2.290009E-1
03/06/2025  21:46:52.954557	-2.420249E-1
03/06/2025  21:46:52.955057	-3.377515E-1
03/06/2025  21:46:52.955557	-3.139826E-1
03/06/2025  21:46:52.956057	-3.660787E-1
03/06/2025  21:46:52.956557	-4.155700E-1
03/06/2025  21:46:52.957057	-4.451996E-1
03/06/2025  21:46:52.957557	-5.142269E-1
03/06/2025  21:46:52.958057	-5.298557E-1
03/06/2025  21:46:52.958557	-5.803238E-1
03/06/2025  21:46:52.959057	-6.174423E-1
03/06/2025  21:46:52.959557	-6.285127E-1
03/06/2025  21:46:52.960057	-6.633519E-1
03/06/2025  21:46:52.960557	-6.907024E-1
03/06/2025  21:46:52.961057	-7.340072E-1
03/06/2025  21:46:52.961557	-7.515897E-1
03/06/2025  21:46:52.962057	-7.577761E-1
03/06/2025  21:46:52.962557	-7.851265E-1
03/06/2025  21:46:52.963057	-7.681953E-1
03/06/2025  21:46:52.963557	-7.554969E-1
03/06/2025  21:46:52.964057	-7.180528E-1
03/06/2025  21:46:52.964557	-7.001448E-1
03/06/2025  21:46:52.965057	-6.864696E-1
03/06/2025  21:46:52.965557	-6.574911E-1
03/06/2025  21:46:52.966057	-5.956270E-1
03/06/2025  21:46:52.966557	-5.262741E-1
03/06/2025  21:46:52.967057	-5.116221E-1
03/06/2025  21:46:52.967557	-4.823181E-1
03/06/2025  21:46:52.968057	-4.207796E-1
03/06/2025  21:46:52.968557	-3.722651E-1
03/06/2025  21:46:52.969057	-3.260298E-1
03/06/2025  21:46:52.969557	-3.279834E-1
03/06/2025  21:46:52.970057	-3.117034E-1
03/06/2025  21:46:52.970557	-2.687242E-1
03/06/2025  21:46:52.971057	-2.381177E-1
03/06/2025  21:46:52.971557	-2.501649E-1
03/06/2025  21:46:52.972057	-2.114185E-1
03/06/2025  21:46:52.972557	-2.052321E-1
03/06/2025  21:46:52.973057	-2.179305E-1
03/06/2025  21:46:52.973557	-2.443041E-1
03/06/2025  21:46:52.974057	-2.534209E-1
03/06/2025  21:46:52.974557	-2.863066E-1
03/06/2025  21:46:52.975057	-3.022610E-1
03/06/2025  21:46:52.975557	-3.367747E-1
03/06/2025  21:46:52.976057	-3.602179E-1
03/06/2025  21:46:52.976557	-4.445484E-1
03/06/2025  21:46:52.977057	-4.761317E-1
03/06/2025  21:46:52.977557	-4.979469E-1
03/06/2025  21:46:52.978057	-5.282277E-1
03/06/2025  21:46:52.978557	-5.487406E-1
03/06/2025  21:46:52.979057	-6.216751E-1
03/06/2025  21:46:52.979557	-6.421879E-1
03/06/2025  21:46:52.980057	-6.646543E-1
03/06/2025  21:46:52.980557	-7.076336E-1
03/06/2025  21:46:52.981057	-7.050288E-1
03/06/2025  21:46:52.981557	-7.216344E-1
03/06/2025  21:46:52.982057	-7.356352E-1
03/06/2025  21:46:52.982557	-7.336816E-1
03/06/2025  21:46:52.983057	-7.245648E-1
03/06/2025  21:46:52.983557	-7.633113E-1
03/06/2025  21:46:52.984057	-7.154480E-1
03/06/2025  21:46:52.984557	-6.773527E-1
03/06/2025  21:46:52.985057	-6.610727E-1
03/06/2025  21:46:52.985557	-6.226519E-1
03/06/2025  21:46:52.986057	-5.943246E-1
03/06/2025  21:46:52.986557	-5.695790E-1
03/06/2025  21:46:52.987057	-5.487406E-1
03/06/2025  21:46:52.987557	-4.849229E-1
03/06/2025  21:46:52.988057	-4.126396E-1
03/06/2025  21:46:52.988557	-3.940803E-1
03/06/2025  21:46:52.989057	-3.530547E-1
03/06/2025  21:46:52.989557	-3.149594E-1
03/06/2025  21:46:52.990057	-2.944466E-1
03/06/2025  21:46:52.990557	-2.723058E-1
03/06/2025  21:46:52.991057	-2.592817E-1
03/06/2025  21:46:52.991557	-2.430017E-1
03/06/2025  21:46:52.992057	-2.205353E-1
03/06/2025  21:46:52.992557	-1.925336E-1
03/06/2025  21:46:52.993057	-2.156513E-1
03/06/2025  21:46:52.993557	-2.514673E-1
03/06/2025  21:46:52.994057	-2.491881E-1
03/06/2025  21:46:52.994557	-2.706778E-1
03/06/2025  21:46:52.995057	-2.589561E-1
03/06/2025  21:46:52.995557	-3.130058E-1
03/06/2025  21:46:52.996057	-3.458915E-1
03/06/2025  21:46:52.996557	-4.074300E-1
03/06/2025  21:46:52.997057	-4.549676E-1
03/06/2025  21:46:52.997557	-4.953421E-1
03/06/2025  21:46:52.998057	-5.656718E-1
03/06/2025  21:46:52.998557	-5.705558E-1
03/06/2025  21:46:52.999057	-6.363271E-1
03/06/2025  21:46:52.999557	-6.477231E-1
03/06/2025  21:46:53.000057	-6.819112E-1
03/06/2025  21:46:53.000557	-7.099128E-1
03/06/2025  21:46:53.001057	-7.340072E-1
03/06/2025  21:46:53.001557	-7.515897E-1
03/06/2025  21:46:53.002057	-7.698233E-1
03/06/2025  21:46:53.002557	-7.528921E-1
03/06/2025  21:46:53.003057	-7.388912E-1
03/06/2025  21:46:53.003557	-7.427984E-1
03/06/2025  21:46:53.004057	-7.229368E-1
03/06/2025  21:46:53.004557	-6.770271E-1
03/06/2025  21:46:53.005057	-6.965632E-1
03/06/2025  21:46:53.005557	-6.552119E-1
03/06/2025  21:46:53.006057	-5.930222E-1
03/06/2025  21:46:53.006557	-5.555782E-1
03/06/2025  21:46:53.007057	-4.894813E-1
03/06/2025  21:46:53.007557	-4.787365E-1
03/06/2025  21:46:53.008057	-4.256636E-1
03/06/2025  21:46:53.008557	-4.031971E-1
03/06/2025  21:46:53.009057	-3.667299E-1
03/06/2025  21:46:53.009557	-3.149594E-1
03/06/2025  21:46:53.010057	-2.924930E-1
03/06/2025  21:46:53.010557	-2.579793E-1
03/06/2025  21:46:53.011057	-2.351873E-1
03/06/2025  21:46:53.011557	-2.198841E-1
03/06/2025  21:46:53.012057	-2.387689E-1
03/06/2025  21:46:53.012557	-2.078369E-1
03/06/2025  21:46:53.013057	-2.267217E-1
03/06/2025  21:46:53.013557	-2.176049E-1
03/06/2025  21:46:53.014057	-1.912312E-1
03/06/2025  21:46:53.014557	-2.615609E-1
03/06/2025  21:46:53.015057	-2.625377E-1
03/06/2025  21:46:53.015557	-2.937954E-1
03/06/2025  21:46:53.016057	-3.423099E-1
03/06/2025  21:46:53.016557	-4.071044E-1
03/06/2025  21:46:53.017057	-4.145932E-1
03/06/2025  21:46:53.017557	-4.725500E-1
03/06/2025  21:46:53.018057	-4.982725E-1
03/06/2025  21:46:53.018557	-5.487406E-1
03/06/2025  21:46:53.019057	-5.754398E-1
03/06/2025  21:46:53.019557	-6.298151E-1
03/06/2025  21:46:53.020057	-6.568399E-1
03/06/2025  21:46:53.020557	-6.815856E-1
03/06/2025  21:46:53.021057	-6.815856E-1
03/06/2025  21:46:53.021557	-7.138200E-1
03/06/2025  21:46:53.022057	-7.372632E-1
03/06/2025  21:46:53.022557	-7.375888E-1
03/06/2025  21:46:53.023057	-7.353096E-1
03/06/2025  21:46:53.023557	-6.825624E-1
03/06/2025  21:46:53.024057	-6.916792E-1
03/06/2025  21:46:53.024557	-6.675847E-1
03/06/2025  21:46:53.025057	-6.447927E-1
03/06/2025  21:46:53.025557	-6.366527E-1
03/06/2025  21:46:53.026057	-5.813006E-1
03/06/2025  21:46:53.026557	-5.588342E-1
03/06/2025  21:46:53.027057	-5.119477E-1
03/06/2025  21:46:53.027557	-4.510604E-1
03/06/2025  21:46:53.028057	-4.188260E-1
03/06/2025  21:46:53.028557	-3.768235E-1
03/06/2025  21:46:53.029057	-3.406819E-1
03/06/2025  21:46:53.029557	-3.165874E-1
03/06/2025  21:46:53.030057	-2.892370E-1
03/06/2025  21:46:53.030557	-2.530953E-1
03/06/2025  21:46:53.031057	-2.117441E-1
03/06/2025  21:46:53.031557	-2.150001E-1
03/06/2025  21:46:53.032057	-1.980689E-1
03/06/2025  21:46:53.032557	-1.983945E-1
03/06/2025  21:46:53.033057	-2.062089E-1
03/06/2025  21:46:53.033557	-2.521185E-1
03/06/2025  21:46:53.034057	-2.413737E-1
03/06/2025  21:46:53.034557	-2.674218E-1
03/06/2025  21:46:53.035057	-2.918418E-1
03/06/2025  21:46:53.035557	-2.941210E-1
03/06/2025  21:46:53.036057	-3.823587E-1
03/06/2025  21:46:53.036557	-4.158956E-1
03/06/2025  21:46:53.037057	-4.595260E-1
03/06/2025  21:46:53.037557	-5.077149E-1
03/06/2025  21:46:53.038057	-5.344141E-1
03/06/2025  21:46:53.038557	-5.617646E-1
03/06/2025  21:46:53.039057	-6.262335E-1
03/06/2025  21:46:53.039557	-6.675847E-1
03/06/2025  21:46:53.040057	-6.643287E-1
03/06/2025  21:46:53.040557	-7.480080E-1
03/06/2025  21:46:53.041057	-7.535433E-1
03/06/2025  21:46:53.041557	-7.460544E-1
03/06/2025  21:46:53.042057	-7.567993E-1
03/06/2025  21:46:53.042557	-7.310768E-1
03/06/2025  21:46:53.043057	-7.460544E-1
03/06/2025  21:46:53.043557	-7.434496E-1
03/06/2025  21:46:53.044057	-7.174016E-1
03/06/2025  21:46:53.044557	-7.079592E-1
03/06/2025  21:46:53.045057	-6.666079E-1
03/06/2025  21:46:53.045557	-6.376295E-1
03/06/2025  21:46:53.046057	-5.881382E-1
03/06/2025  21:46:53.046557	-5.357165E-1
03/06/2025  21:46:53.047057	-4.911093E-1
03/06/2025  21:46:53.047557	-4.425948E-1
03/06/2025  21:46:53.048057	-4.230588E-1
03/06/2025  21:46:53.048557	-3.683579E-1
03/06/2025  21:46:53.049057	-3.400307E-1
03/06/2025  21:46:53.049557	-2.807714E-1
03/06/2025  21:46:53.050057	-2.706778E-1
03/06/2025  21:46:53.050557	-2.267217E-1
03/06/2025  21:46:53.051057	-2.013249E-1
03/06/2025  21:46:53.051557	-1.951384E-1
03/06/2025  21:46:53.052057	-1.580200E-1
03/06/2025  21:46:53.052557	-1.743000E-1
03/06/2025  21:46:53.053057	-1.970920E-1
03/06/2025  21:46:53.053557	-2.052321E-1
03/06/2025  21:46:53.054057	-2.319313E-1
03/06/2025  21:46:53.054557	-2.524441E-1
03/06/2025  21:46:53.055057	-2.918418E-1
03/06/2025  21:46:53.055557	-3.038890E-1
03/06/2025  21:46:53.056057	-3.397051E-1
03/06/2025  21:46:53.056557	-3.986387E-1
03/06/2025  21:46:53.057057	-4.201284E-1
03/06/2025  21:46:53.057557	-4.956677E-1
03/06/2025  21:46:53.058057	-5.484150E-1
03/06/2025  21:46:53.058557	-5.780446E-1
03/06/2025  21:46:53.059057	-5.601366E-1
03/06/2025  21:46:53.059557	-6.454439E-1
03/06/2025  21:46:53.060057	-6.685615E-1
03/06/2025  21:46:53.060557	-7.076336E-1
03/06/2025  21:46:53.061057	-7.304256E-1
03/06/2025  21:46:53.061557	-7.499616E-1
03/06/2025  21:46:53.062057	-7.782889E-1
03/06/2025  21:46:53.062557	-7.551713E-1
03/06/2025  21:46:53.063057	-7.398680E-1
03/06/2025  21:46:53.063557	-7.427984E-1
03/06/2025  21:46:53.064057	-7.092616E-1
03/06/2025  21:46:53.064557	-7.079592E-1
03/06/2025  21:46:53.065057	-6.910280E-1
03/06/2025  21:46:53.065557	-6.597703E-1
03/06/2025  21:46:53.066057	-5.946502E-1
03/06/2025  21:46:53.066557	-5.617646E-1
03/06/2025  21:46:53.067057	-5.025053E-1
03/06/2025  21:46:53.067557	-4.634332E-1
03/06/2025  21:46:53.068057	-4.227332E-1
03/06/2025  21:46:53.068557	-3.797539E-1
03/06/2025  21:46:53.069057	-3.817075E-1
03/06/2025  21:46:53.069557	-3.227738E-1
03/06/2025  21:46:53.070057	-3.042146E-1
03/06/2025  21:46:53.070557	-2.765386E-1
03/06/2025  21:46:53.071057	-2.224889E-1
03/06/2025  21:46:53.071557	-2.410481E-1
03/06/2025  21:46:53.072057	-2.263961E-1
03/06/2025  21:46:53.072557	-2.241169E-1
03/06/2025  21:46:53.073057	-2.290009E-1
03/06/2025  21:46:53.073557	-2.517929E-1
03/06/2025  21:46:53.074057	-2.537465E-1
03/06/2025  21:46:53.074557	-2.937954E-1
03/06/2025  21:46:53.075057	-2.921674E-1
03/06/2025  21:46:53.075557	-3.133314E-1
03/06/2025  21:46:53.076057	-4.979469E-1
03/06/2025  21:46:53.076557	-4.357572E-1
03/06/2025  21:46:53.077057	-4.631076E-1
03/06/2025  21:46:53.077557	-4.963189E-1
03/06/2025  21:46:53.078057	-5.064125E-1
03/06/2025  21:46:53.078557	-5.939990E-1
03/06/2025  21:46:53.079057	-5.959526E-1
03/06/2025  21:46:53.079557	-6.197215E-1
03/06/2025  21:46:53.080057	-6.613983E-1
03/06/2025  21:46:53.080557	-6.604215E-1
03/06/2025  21:46:53.081057	-7.060056E-1
03/06/2025  21:46:53.081557	-7.115408E-1
03/06/2025  21:46:53.082057	-7.274952E-1
03/06/2025  21:46:53.082557	-7.418216E-1
03/06/2025  21:46:53.083057	-7.069824E-1
03/06/2025  21:46:53.083557	-7.336816E-1
03/06/2025  21:46:53.084057	-7.007960E-1
03/06/2025  21:46:53.084557	-6.783295E-1
03/06/2025  21:46:53.085057	-6.158143E-1
03/06/2025  21:46:53.085557	-6.021390E-1
03/06/2025  21:46:53.086057	-5.699046E-1
03/06/2025  21:46:53.086557	-5.213901E-1
03/06/2025  21:46:53.087057	-4.732012E-1
03/06/2025  21:46:53.087557	-4.126396E-1
03/06/2025  21:46:53.088057	-4.054764E-1
03/06/2025  21:46:53.088557	-3.556595E-1
03/06/2025  21:46:53.089057	-3.204946E-1
03/06/2025  21:46:53.089557	-2.996562E-1
03/06/2025  21:46:53.090057	-2.570025E-1
03/06/2025  21:46:53.090557	-2.550489E-1
03/06/2025  21:46:53.091057	-2.436529E-1
03/06/2025  21:46:53.091557	-2.312801E-1
03/06/2025  21:46:53.092057	-2.071857E-1
03/06/2025  21:46:53.092557	-1.938360E-1
03/06/2025  21:46:53.093057	-2.208609E-1
03/06/2025  21:46:53.093557	-2.316057E-1
03/06/2025  21:46:53.094057	-2.394201E-1
03/06/2025  21:46:53.094557	-2.729570E-1
03/06/2025  21:46:53.095057	-2.970514E-1
03/06/2025  21:46:53.095557	-3.335186E-1
03/06/2025  21:46:53.096057	-3.699859E-1
03/06/2025  21:46:53.096557	-4.230588E-1
03/06/2025  21:46:53.097057	-4.491068E-1
03/06/2025  21:46:53.097557	-5.347397E-1
03/06/2025  21:46:53.098057	-5.568806E-1
03/06/2025  21:46:53.098557	-5.933478E-1
03/06/2025  21:46:53.099057	-6.535839E-1
03/06/2025  21:46:53.099557	-6.356759E-1
03/06/2025  21:46:53.100057	-6.942840E-1
03/06/2025  21:46:53.100557	-6.968888E-1
03/06/2025  21:46:53.101057	-7.388912E-1
03/06/2025  21:46:53.101557	-7.392168E-1
03/06/2025  21:46:53.102057	-7.616833E-1
03/06/2025  21:46:53.102557	-7.532177E-1
03/06/2025  21:46:53.103057	-7.522409E-1
03/06/2025  21:46:53.103557	-7.258672E-1
03/06/2025  21:46:53.104057	-7.076336E-1
03/06/2025  21:46:53.104557	-7.388912E-1
03/06/2025  21:46:53.105057	-6.962376E-1
03/06/2025  21:46:53.105557	-6.441415E-1
03/06/2025  21:46:53.106057	-5.887894E-1
03/06/2025  21:46:53.106557	-5.337629E-1
03/06/2025  21:46:53.107057	-5.090173E-1
03/06/2025  21:46:53.107557	-4.683172E-1
03/06/2025  21:46:53.108057	-4.233844E-1
03/06/2025  21:46:53.108557	-3.921267E-1
03/06/2025  21:46:53.109057	-3.257042E-1
03/06/2025  21:46:53.109557	-3.042146E-1
03/06/2025  21:46:53.110057	-2.905394E-1
03/06/2025  21:46:53.110557	-2.644913E-1
03/06/2025  21:46:53.111057	-2.237913E-1
03/06/2025  21:46:53.111557	-2.166281E-1
03/06/2025  21:46:53.112057	-2.198841E-1
03/06/2025  21:46:53.112557	-2.003481E-1
03/06/2025  21:46:53.113057	-2.176049E-1
03/06/2025  21:46:53.113557	-2.009993E-1
03/06/2025  21:46:53.114057	-2.273729E-1
03/06/2025  21:46:53.114557	-2.596073E-1
03/06/2025  21:46:53.115057	-2.758874E-1
03/06/2025  21:46:53.115557	-3.003074E-1
03/06/2025  21:46:53.116057	-3.344954E-1
03/06/2025  21:46:53.116557	-4.171980E-1
03/06/2025  21:46:53.117057	-4.676660E-1
03/06/2025  21:46:53.117557	-4.972957E-1
03/06/2025  21:46:53.118057	-5.357165E-1
03/06/2025  21:46:53.118557	-5.813006E-1
03/06/2025  21:46:53.119057	-6.431647E-1
03/06/2025  21:46:53.119557	-6.454439E-1
03/06/2025  21:46:53.120057	-6.799575E-1
03/06/2025  21:46:53.120557	-7.047032E-1
03/06/2025  21:46:53.121057	-7.450776E-1
03/06/2025  21:46:53.121557	-7.190296E-1
03/06/2025  21:46:53.122057	-7.268440E-1
03/06/2025  21:46:53.122557	-7.476824E-1
03/06/2025  21:46:53.123057	-7.405192E-1
03/06/2025  21:46:53.123557	-7.213088E-1
03/06/2025  21:46:53.124057	-7.063312E-1
03/06/2025  21:46:53.124557	-6.721431E-1
03/06/2025  21:46:53.125057	-6.486999E-1
03/06/2025  21:46:53.125557	-6.027902E-1
03/06/2025  21:46:53.126057	-5.878126E-1
03/06/2025  21:46:53.126557	-5.282277E-1
03/06/2025  21:46:53.127057	-5.005517E-1
03/06/2025  21:46:53.127557	-4.360828E-1
03/06/2025  21:46:53.128057	-3.826843E-1
03/06/2025  21:46:53.128557	-3.641251E-1
03/06/2025  21:46:53.129057	-3.338442E-1
03/06/2025  21:46:53.129557	-2.876090E-1
03/06/2025  21:46:53.130057	-2.768642E-1
03/06/2025  21:46:53.130557	-2.368153E-1
03/06/2025  21:46:53.131057	-2.293265E-1
03/06/2025  21:46:53.131557	-2.088137E-1
03/06/2025  21:46:53.132057	-1.951384E-1
03/06/2025  21:46:53.132557	-1.967664E-1
03/06/2025  21:46:53.133057	-2.543977E-1
03/06/2025  21:46:53.133557	-2.407225E-1
03/06/2025  21:46:53.134057	-2.592817E-1
03/06/2025  21:46:53.134557	-2.794690E-1
03/06/2025  21:46:53.135057	-2.797946E-1
03/06/2025  21:46:53.135557	-3.227738E-1
03/06/2025  21:46:53.136057	-3.631483E-1
03/06/2025  21:46:53.136557	-4.155700E-1
03/06/2025  21:46:53.137057	-4.451996E-1
03/06/2025  21:46:53.137557	-4.686428E-1
03/06/2025  21:46:53.138057	-5.295301E-1
03/06/2025  21:46:53.138557	-5.598110E-1
03/06/2025  21:46:53.139057	-5.910686E-1
03/06/2025  21:46:53.139557	-6.327455E-1
03/06/2025  21:46:53.140057	-6.477231E-1
03/06/2025  21:46:53.140557	-7.050288E-1
03/06/2025  21:46:53.141057	-7.183784E-1
03/06/2025  21:46:53.141557	-7.401936E-1
03/06/2025  21:46:53.142057	-7.317280E-1
03/06/2025  21:46:53.142557	-7.411704E-1
03/06/2025  21:46:53.143057	-7.424728E-1
03/06/2025  21:46:53.143557	-7.079592E-1
03/06/2025  21:46:53.144057	-6.920048E-1
03/06/2025  21:46:53.144557	-6.496767E-1
03/06/2025  21:46:53.145057	-6.434903E-1
03/06/2025  21:46:53.145557	-6.099534E-1
03/06/2025  21:46:53.146057	-5.692534E-1
03/06/2025  21:46:53.146557	-5.318093E-1
03/06/2025  21:46:53.147057	-4.823181E-1
03/06/2025  21:46:53.147557	-4.409668E-1
03/06/2025  21:46:53.148057	-4.256636E-1
03/06/2025  21:46:53.148557	-3.787771E-1
03/06/2025  21:46:53.149057	-3.289602E-1
03/06/2025  21:46:53.149557	-2.846786E-1
03/06/2025  21:46:53.150057	-2.618865E-1
03/06/2025  21:46:53.150557	-2.358385E-1
03/06/2025  21:46:53.151057	-2.042553E-1
03/06/2025  21:46:53.151557	-1.902544E-1
03/06/2025  21:46:53.152057	-1.573688E-1
03/06/2025  21:46:53.152557	-1.414144E-1
03/06/2025  21:46:53.153057	-1.756024E-1
03/06/2025  21:46:53.153557	-1.713696E-1
03/06/2025  21:46:53.154057	-1.860216E-1
03/06/2025  21:46:53.154557	-2.449553E-1
03/06/2025  21:46:53.155057	-2.680730E-1
03/06/2025  21:46:53.155557	-2.853298E-1
03/06/2025  21:46:53.156057	-3.230994E-1
03/06/2025  21:46:53.156557	-3.507755E-1
03/06/2025  21:46:53.157057	-4.152444E-1
03/06/2025  21:46:53.157557	-4.448740E-1
03/06/2025  21:46:53.158057	-4.767829E-1
03/06/2025  21:46:53.158557	-5.148781E-1
03/06/2025  21:46:53.159057	-5.542758E-1
03/06/2025  21:46:53.159557	-5.907430E-1
03/06/2025  21:46:53.160057	-6.018134E-1
03/06/2025  21:46:53.160557	-6.493511E-1
03/06/2025  21:46:53.161057	-6.522815E-1
03/06/2025  21:46:53.161557	-6.929816E-1
03/06/2025  21:46:53.162057	-7.011216E-1
03/06/2025  21:46:53.162557	-7.089360E-1
03/06/2025  21:46:53.163057	-6.861440E-1
03/06/2025  21:46:53.163557	-6.275359E-1
03/06/2025  21:46:53.164057	-6.389319E-1
03/06/2025  21:46:53.164557	-6.125583E-1
03/06/2025  21:46:53.165057	-5.845566E-1
03/06/2025  21:46:53.165557	-5.546014E-1
03/06/2025  21:46:53.166057	-5.226925E-1
03/06/2025  21:46:53.166557	-4.666892E-1
03/06/2025  21:46:53.167057	-4.246868E-1
03/06/2025  21:46:53.167557	-3.735675E-1
03/06/2025  21:46:53.168057	-3.406819E-1
03/06/2025  21:46:53.168557	-3.045402E-1
03/06/2025  21:46:53.169057	-2.687242E-1
03/06/2025  21:46:53.169557	-2.381177E-1
03/06/2025  21:46:53.170057	-2.247681E-1
03/06/2025  21:46:53.170557	-1.782072E-1
03/06/2025  21:46:53.171057	-1.635552E-1
03/06/2025  21:46:53.171557	-1.417400E-1
03/06/2025  21:46:53.172057	-1.378328E-1
03/06/2025  21:46:53.172557	-1.410888E-1
03/06/2025  21:46:53.173057	-1.244831E-1
03/06/2025  21:46:53.173557	-1.394608E-1
03/06/2025  21:46:53.174057	-1.671368E-1
03/06/2025  21:46:53.174557	-2.075113E-1
03/06/2025  21:46:53.175057	-2.387689E-1
03/06/2025  21:46:53.175557	-2.557001E-1
03/06/2025  21:46:53.176057	-3.371003E-1
03/06/2025  21:46:53.176557	-3.784515E-1
03/06/2025  21:46:53.177057	-4.084068E-1
03/06/2025  21:46:53.177557	-4.455252E-1
03/06/2025  21:46:53.178057	-4.784109E-1
03/06/2025  21:46:53.178557	-5.200877E-1
03/06/2025  21:46:53.179057	-5.650206E-1
03/06/2025  21:46:53.179557	-5.790214E-1
03/06/2025  21:46:53.180057	-6.164655E-1
03/06/2025  21:46:53.180557	-6.320943E-1
03/06/2025  21:46:53.181057	-6.431647E-1
03/06/2025  21:46:53.181557	-6.503279E-1
03/06/2025  21:46:53.182057	-6.913536E-1
03/06/2025  21:46:53.182557	-6.806087E-1
03/06/2025  21:46:53.183057	-6.835392E-1
03/06/2025  21:46:53.183557	-6.643287E-1
03/06/2025  21:46:53.184057	-6.441415E-1
03/06/2025  21:46:53.184557	-6.096278E-1
03/06/2025  21:46:53.185057	-5.819518E-1
03/06/2025  21:46:53.185557	-5.894406E-1
03/06/2025  21:46:53.186057	-5.187853E-1
03/06/2025  21:46:53.186557	-4.640844E-1
03/06/2025  21:46:53.187057	-4.360828E-1
03/06/2025  21:46:53.187557	-3.901731E-1
03/06/2025  21:46:53.188057	-3.520779E-1
03/06/2025  21:46:53.188557	-3.286346E-1
03/06/2025  21:46:53.189057	-2.781666E-1
03/06/2025  21:46:53.189557	-2.329081E-1
03/06/2025  21:46:53.190057	-2.446297E-1
03/06/2025  21:46:53.190557	-1.961152E-1
03/06/2025  21:46:53.191057	-1.531360E-1
03/06/2025  21:46:53.191557	-1.453216E-1
03/06/2025  21:46:53.192057	-1.088543E-1
03/06/2025  21:46:53.192557	-1.261111E-1
03/06/2025  21:46:53.193057	-1.495544E-1
03/06/2025  21:46:53.193557	-1.440192E-1
03/06/2025  21:46:53.194057	-1.756024E-1
03/06/2025  21:46:53.194557	-2.006737E-1
03/06/2025  21:46:53.195057	-1.944872E-1
03/06/2025  21:46:53.195557	-2.290009E-1
03/06/2025  21:46:53.196057	-2.908650E-1
03/06/2025  21:46:53.196557	-3.325418E-1
03/06/2025  21:46:53.197057	-3.660787E-1
03/06/2025  21:46:53.197557	-4.214308E-1
03/06/2025  21:46:53.198057	-4.520372E-1
03/06/2025  21:46:53.198557	-4.819925E-1
03/06/2025  21:46:53.199057	-5.233437E-1
03/06/2025  21:46:53.199557	-6.119071E-1
03/06/2025  21:46:53.200057	-5.910686E-1
03/06/2025  21:46:53.200557	-6.177679E-1
03/06/2025  21:46:53.201057	-6.392575E-1
03/06/2025  21:46:53.201557	-6.099534E-1
03/06/2025  21:46:53.202057	-6.731199E-1
03/06/2025  21:46:53.202557	-6.610727E-1
03/06/2025  21:46:53.203057	-6.229775E-1
03/06/2025  21:46:53.203557	-6.184191E-1
03/06/2025  21:46:53.204057	-6.128839E-1
03/06/2025  21:46:53.204557	-6.079998E-1
03/06/2025  21:46:53.205057	-5.689278E-1
03/06/2025  21:46:53.205557	-5.441822E-1
03/06/2025  21:46:53.206057	-4.419436E-1
03/06/2025  21:46:53.206557	-4.393388E-1
03/06/2025  21:46:53.207057	-4.041739E-1
03/06/2025  21:46:53.207557	-3.432867E-1
03/06/2025  21:46:53.208057	-2.908650E-1
03/06/2025  21:46:53.208557	-2.319313E-1
03/06/2025  21:46:53.209057	-2.198841E-1
03/06/2025  21:46:53.209557	-2.065345E-1
03/06/2025  21:46:53.210057	-1.759280E-1
03/06/2025  21:46:53.210557	-1.645320E-1
03/06/2025  21:46:53.211057	-1.391352E-1
03/06/2025  21:46:53.211557	-1.629040E-1
03/06/2025  21:46:53.212057	-1.462984E-1
03/06/2025  21:46:53.212557	-1.407632E-1
03/06/2025  21:46:53.213057	-1.703928E-1
03/06/2025  21:46:53.213557	-1.482520E-1
03/06/2025  21:46:53.214057	-1.840680E-1
03/06/2025  21:46:53.214557	-2.263961E-1
03/06/2025  21:46:53.215057	-2.430017E-1
03/06/2025  21:46:53.215557	-2.778410E-1
03/06/2025  21:46:53.216057	-3.253786E-1
03/06/2025  21:46:53.216557	-3.774747E-1
03/06/2025  21:46:53.217057	-4.207796E-1
03/06/2025  21:46:53.217557	-4.546420E-1
03/06/2025  21:46:53.218057	-4.940397E-1
03/06/2025  21:46:53.218557	-5.500430E-1
03/06/2025  21:46:53.219057	-5.939990E-1
03/06/2025  21:46:53.219557	-6.272103E-1
03/06/2025  21:46:53.220057	-6.692127E-1
03/06/2025  21:46:53.220557	-6.659567E-1
03/06/2025  21:46:53.221057	-7.174016E-1
03/06/2025  21:46:53.221557	-7.200064E-1
03/06/2025  21:46:53.222057	-7.268440E-1
03/06/2025  21:46:53.222557	-7.203320E-1
03/06/2025  21:46:53.223057	-7.014472E-1
03/06/2025  21:46:53.223557	-6.972144E-1
03/06/2025  21:46:53.224057	-6.838648E-1
03/06/2025  21:46:53.224557	-6.649799E-1
03/06/2025  21:46:53.225057	-6.187447E-1
03/06/2025  21:46:53.225557	-6.711663E-1
03/06/2025  21:46:53.226057	-5.712070E-1
03/06/2025  21:46:53.226557	-5.184597E-1
03/06/2025  21:46:53.227057	-4.764573E-1
03/06/2025  21:46:53.227557	-4.142676E-1
03/06/2025  21:46:53.228057	-4.071044E-1
03/06/2025  21:46:53.228557	-3.576131E-1
03/06/2025  21:46:53.229057	-3.188666E-1
03/06/2025  21:46:53.229557	-2.833762E-1
03/06/2025  21:46:53.230057	-2.540721E-1
03/06/2025  21:46:53.230557	-2.286753E-1
03/06/2025  21:46:53.231057	-2.153257E-1
03/06/2025  21:46:53.231557	-2.130465E-1
03/06/2025  21:46:53.232057	-1.827656E-1
03/06/2025  21:46:53.232557	-1.817888E-1
03/06/2025  21:46:53.233057	-2.055577E-1
03/06/2025  21:46:53.233557	-2.218377E-1
03/06/2025  21:46:53.234057	-2.446297E-1
03/06/2025  21:46:53.234557	-2.472345E-1
03/06/2025  21:46:53.235057	-2.846786E-1
03/06/2025  21:46:53.235557	-3.266810E-1
03/06/2025  21:46:53.236057	-3.797539E-1
03/06/2025  21:46:53.236557	-4.123140E-1
03/06/2025  21:46:53.237057	-4.191516E-1
03/06/2025  21:46:53.237557	-4.875277E-1
03/06/2025  21:46:53.238057	-5.500430E-1
03/06/2025  21:46:53.238557	-5.692534E-1
03/06/2025  21:46:53.239057	-6.079998E-1
03/06/2025  21:46:53.239557	-6.473975E-1
03/06/2025  21:46:53.240057	-6.900512E-1
03/06/2025  21:46:53.240557	-7.174016E-1
03/06/2025  21:46:53.241057	-7.353096E-1
03/06/2025  21:46:53.241557	-7.476824E-1
03/06/2025  21:46:53.242057	-7.828473E-1
03/06/2025  21:46:53.242557	-7.649393E-1
03/06/2025  21:46:53.243057	-7.437752E-1
03/06/2025  21:46:53.243557	-7.333560E-1
03/06/2025  21:46:53.244057	-7.206576E-1
03/06/2025  21:46:53.244557	-7.151224E-1
03/06/2025  21:46:53.245057	-6.822368E-1
03/06/2025  21:46:53.245557	-6.477231E-1
03/06/2025  21:46:53.246057	-5.878126E-1
03/06/2025  21:46:53.246557	-5.331117E-1
03/06/2025  21:46:53.247057	-5.262741E-1
03/06/2025  21:46:53.247557	-4.689684E-1
03/06/2025  21:46:53.248057	-4.569212E-1
03/06/2025  21:46:53.248557	-4.077556E-1
03/06/2025  21:46:53.249057	-3.244018E-1
03/06/2025  21:46:53.249557	-3.217970E-1
03/06/2025  21:46:53.250057	-3.035634E-1
03/06/2025  21:46:53.250557	-2.784922E-1
03/06/2025  21:46:53.251057	-2.433273E-1
03/06/2025  21:46:53.251557	-2.381177E-1
03/06/2025  21:46:53.252057	-2.062089E-1
03/06/2025  21:46:53.252557	-2.153257E-1
03/06/2025  21:46:53.253057	-2.276985E-1
03/06/2025  21:46:53.253557	-2.413737E-1
03/06/2025  21:46:53.254057	-2.768642E-1
03/06/2025  21:46:53.254557	-3.009586E-1
03/06/2025  21:46:53.255057	-3.048658E-1
03/06/2025  21:46:53.255557	-3.292858E-1
03/06/2025  21:46:53.256057	-3.631483E-1
03/06/2025  21:46:53.256557	-4.347804E-1
03/06/2025  21:46:53.257057	-4.767829E-1
03/06/2025  21:46:53.257557	-5.409261E-1
03/06/2025  21:46:53.258057	-5.588342E-1
03/06/2025  21:46:53.258557	-5.672998E-1
03/06/2025  21:46:53.259057	-5.939990E-1
03/06/2025  21:46:53.259557	-6.294895E-1
03/06/2025  21:46:53.260057	-6.513047E-1
03/06/2025  21:46:53.260557	-6.789807E-1
03/06/2025  21:46:53.261057	-7.056800E-1
03/06/2025  21:46:53.261557	-7.395424E-1
03/06/2025  21:46:53.262057	-7.812193E-1
03/06/2025  21:46:53.262557	-7.607065E-1
03/06/2025  21:46:53.263057	-7.274952E-1
03/06/2025  21:46:53.263557	-7.082848E-1
03/06/2025  21:46:53.264057	-7.261928E-1
03/06/2025  21:46:53.264557	-6.894000E-1
03/06/2025  21:46:53.265057	-6.695383E-1
03/06/2025  21:46:53.265557	-6.213495E-1
03/06/2025  21:46:53.266057	-5.966038E-1
03/06/2025  21:46:53.266557	-5.542758E-1
03/06/2025  21:46:53.267057	-5.178085E-1
03/06/2025  21:46:53.267557	-5.002261E-1
03/06/2025  21:46:53.268057	-4.634332E-1
03/06/2025  21:46:53.268557	-4.552932E-1
03/06/2025  21:46:53.269057	-3.927779E-1
03/06/2025  21:46:53.269557	-3.445891E-1
03/06/2025  21:46:53.270057	-3.318906E-1
03/06/2025  21:46:53.270557	-3.120290E-1
03/06/2025  21:46:53.271057	-3.120290E-1
03/06/2025  21:46:53.271557	-3.172386E-1
03/06/2025  21:46:53.272057	-3.165874E-1
03/06/2025  21:46:53.272557	-3.234250E-1
03/06/2025  21:46:53.273057	-3.413331E-1
03/06/2025  21:46:53.273557	-3.543571E-1
03/06/2025  21:46:53.274057	-3.999411E-1
03/06/2025  21:46:53.274557	-4.285940E-1
03/06/2025  21:46:53.275057	-4.767829E-1
03/06/2025  21:46:53.275557	-5.285533E-1
03/06/2025  21:46:53.276057	-5.751142E-1
03/06/2025  21:46:53.276557	-6.441415E-1
03/06/2025  21:46:53.277057	-6.916792E-1
03/06/2025  21:46:53.277557	-7.092616E-1
03/06/2025  21:46:53.278057	-8.007553E-1
03/06/2025  21:46:53.278557	-8.482930E-1
03/06/2025  21:46:53.279057	-8.857370E-1
03/06/2025  21:46:53.279557	-9.082035E-1
03/06/2025  21:46:53.280057	-9.251347E-1
03/06/2025  21:46:53.280557	-9.638812E-1
03/06/2025  21:46:53.281057	-9.782076E-1
03/06/2025  21:46:53.281557	-9.954644E-1
03/06/2025  21:46:53.282057	-1.016628E+0
03/06/2025  21:46:53.282557	-1.041700E+0
03/06/2025  21:46:53.283057	-1.011744E+0
03/06/2025  21:46:53.283557	-9.974180E-1
03/06/2025  21:46:53.284057	-9.629044E-1
03/06/2025  21:46:53.284557	-8.671778E-1
03/06/2025  21:46:53.285057	-8.938771E-1
03/06/2025  21:46:53.285557	-8.538282E-1
03/06/2025  21:46:53.286057	-7.805681E-1
03/06/2025  21:46:53.286557	-7.131688E-1
03/06/2025  21:46:53.287057	-6.526071E-1
03/06/2025  21:46:53.287557	-5.477638E-1
03/06/2025  21:46:53.288057	-4.614796E-1
03/06/2025  21:46:53.288557	-3.960339E-1
03/06/2025  21:46:53.289057	-3.058426E-1
03/06/2025  21:46:53.289557	-2.420249E-1
03/06/2025  21:46:53.290057	-2.257449E-1
03/06/2025  21:46:53.290557	-1.860216E-1
03/06/2025  21:46:53.291057	-1.082031E-1
03/06/2025  21:46:53.291557	-2.159340E-2
03/06/2025  21:46:53.292057	5.394591E-2
03/06/2025  21:46:53.292557	9.562277E-2
03/06/2025  21:46:53.293057	1.460908E-1
03/06/2025  21:46:53.293557	2.076293E-1
03/06/2025  21:46:53.294057	3.088911E-1
03/06/2025  21:46:53.294557	3.385207E-1
03/06/2025  21:46:53.295057	3.971288E-1
03/06/2025  21:46:53.295557	4.345729E-1
03/06/2025  21:46:53.296057	4.622489E-1
03/06/2025  21:46:53.296557	5.110890E-1
03/06/2025  21:46:53.297057	5.456026E-1
03/06/2025  21:46:53.297557	5.823955E-1
03/06/2025  21:46:53.298057	6.530508E-1
03/06/2025  21:46:53.298557	6.833316E-1
03/06/2025  21:46:53.299057	7.627781E-1
03/06/2025  21:46:53.299557	8.311542E-1
03/06/2025  21:46:53.300057	8.943207E-1
03/06/2025  21:46:53.300557	9.770232E-1
03/06/2025  21:46:53.301057	1.049958E+0
03/06/2025  21:46:53.301557	1.117683E+0
03/06/2025  21:46:53.302057	1.183454E+0
03/06/2025  21:46:53.302557	1.246620E+0
03/06/2025  21:46:53.303057	1.323137E+0
03/06/2025  21:46:53.303557	1.379465E+0
03/06/2025  21:46:53.304057	1.438399E+0
03/06/2025  21:46:53.304557	1.559848E+0
03/06/2025  21:46:53.305057	1.642551E+0
03/06/2025  21:46:53.305557	1.768884E+0
03/06/2025  21:46:53.306057	1.946661E+0
03/06/2025  21:46:53.306557	2.079506E+0
03/06/2025  21:46:53.307057	2.205839E+0
03/06/2025  21:46:53.307557	2.339336E+0
03/06/2025  21:46:53.308057	2.438644E+0
03/06/2025  21:46:53.308557	2.518416E+0
03/06/2025  21:46:53.309057	2.561395E+0
03/06/2025  21:46:53.309557	2.606654E+0
03/06/2025  21:46:53.310057	2.589397E+0
03/06/2025  21:46:53.310557	2.626515E+0
03/06/2025  21:46:53.311057	2.568884E+0
03/06/2025  21:46:53.311557	2.534696E+0
03/06/2025  21:46:53.312057	2.476088E+0
03/06/2025  21:46:53.312557	2.426597E+0
03/06/2025  21:46:53.313057	2.396316E+0
03/06/2025  21:46:53.313557	2.289193E+0
03/06/2025  21:46:53.314057	2.176535E+0
03/06/2025  21:46:53.314557	2.045644E+0
03/06/2025  21:46:53.315057	1.927451E+0
03/06/2025  21:46:53.315557	1.816421E+0
03/06/2025  21:46:53.316057	1.708322E+0
03/06/2025  21:46:53.316557	1.567337E+0
03/06/2025  21:46:53.317057	1.470308E+0
03/06/2025  21:46:53.317557	1.343649E+0
03/06/2025  21:46:53.318057	1.214060E+0
03/06/2025  21:46:53.318557	1.083495E+0
03/06/2025  21:46:53.319057	9.454400E-1
03/06/2025  21:46:53.319557	8.506903E-1
03/06/2025  21:46:53.320057	7.647317E-1
03/06/2025  21:46:53.320557	6.514228E-1
03/06/2025  21:46:53.321057	5.651387E-1
03/06/2025  21:46:53.321557	5.045770E-1
03/06/2025  21:46:53.322057	3.958264E-1
03/06/2025  21:46:53.322557	3.727088E-1
03/06/2025  21:46:53.323057	2.854478E-1
03/06/2025  21:46:53.323557	2.271654E-1
03/06/2025  21:46:53.324057	1.600917E-1
03/06/2025  21:46:53.324557	8.422676E-2
03/06/2025  21:46:53.325057	-1.215098E-2
03/06/2025  21:46:53.325557	-1.121103E-1
03/06/2025  21:46:53.326057	-1.524848E-1
03/06/2025  21:46:53.326557	-1.798352E-1
03/06/2025  21:46:53.327057	-1.231807E-1
03/06/2025  21:46:53.327557	-1.772304E-1
03/06/2025  21:46:53.328057	-1.941616E-1
03/06/2025  21:46:53.328557	-1.931848E-1
03/06/2025  21:46:53.329057	-1.762536E-1
03/06/2025  21:46:53.329557	-1.182967E-1
03/06/2025  21:46:53.330057	-1.515080E-1
03/06/2025  21:46:53.330557	-1.394608E-1
03/06/2025  21:46:53.331057	-1.352280E-1
03/06/2025  21:46:53.331557	-1.580200E-1
03/06/2025  21:46:53.332057	-1.417400E-1
03/06/2025  21:46:53.332557	-1.677880E-1
03/06/2025  21:46:53.333057	-1.668112E-1
03/06/2025  21:46:53.333557	-1.720208E-1
03/06/2025  21:46:53.334057	-2.026273E-1
03/06/2025  21:46:53.334557	-2.123953E-1
03/06/2025  21:46:53.335057	-2.654681E-1
03/06/2025  21:46:53.335557	-2.934698E-1
03/06/2025  21:46:53.336057	-3.804051E-1
03/06/2025  21:46:53.336557	-4.084068E-1
03/06/2025  21:46:53.337057	-4.243612E-1
03/06/2025  21:46:53.337557	-4.758061E-1
03/06/2025  21:46:53.338057	-4.985981E-1
03/06/2025  21:46:53.338557	-5.432054E-1
03/06/2025  21:46:53.339057	-5.653462E-1
03/06/2025  21:46:53.339557	-6.220007E-1
03/06/2025  21:46:53.340057	-6.425135E-1
03/06/2025  21:46:53.340557	-6.688871E-1
03/06/2025  21:46:53.341057	-6.991680E-1
03/06/2025  21:46:53.341557	-6.718175E-1
03/06/2025  21:46:53.342057	-7.089360E-1
03/06/2025  21:46:53.342557	-7.027496E-1
03/06/2025  21:46:53.343057	-6.845160E-1
03/06/2025  21:46:53.343557	-6.532583E-1
03/06/2025  21:46:53.344057	-6.392575E-1
03/06/2025  21:46:53.344557	-6.164655E-1
03/06/2025  21:46:53.345057	-5.920454E-1
03/06/2025  21:46:53.345557	-5.777190E-1
03/06/2025  21:46:53.346057	-5.021797E-1
03/06/2025  21:46:53.346557	-5.575318E-1
03/06/2025  21:46:53.347057	-4.458508E-1
03/06/2025  21:46:53.347557	-4.067788E-1
03/06/2025  21:46:53.348057	-3.602179E-1
03/06/2025  21:46:53.348557	-3.090986E-1
03/06/2025  21:46:53.349057	-2.846786E-1
03/06/2025  21:46:53.349557	-2.342105E-1
03/06/2025  21:46:53.350057	-2.146745E-1
03/06/2025  21:46:53.350557	-2.023017E-1
03/06/2025  21:46:53.351057	-1.329488E-1
03/06/2025  21:46:53.351557	-1.296928E-1
03/06/2025  21:46:53.352057	-1.270879E-1
03/06/2025  21:46:53.352557	-1.270879E-1
03/06/2025  21:46:53.353057	-1.498800E-1
03/06/2025  21:46:53.353557	-1.729976E-1
03/06/2025  21:46:53.354057	-2.156513E-1
03/06/2025  21:46:53.354557	-2.296521E-1
03/06/2025  21:46:53.355057	-2.618865E-1
03/06/2025  21:46:53.355557	-2.570025E-1
03/06/2025  21:46:53.356057	-3.136570E-1
03/06/2025  21:46:53.356557	-3.680323E-1
03/06/2025  21:46:53.357057	-3.908243E-1
03/06/2025  21:46:53.357557	-4.491068E-1
03/06/2025  21:46:53.358057	-4.386876E-1
03/06/2025  21:46:53.358557	-5.106453E-1
03/06/2025  21:46:53.359057	-5.803238E-1
03/06/2025  21:46:53.359557	-6.057206E-1
03/06/2025  21:46:53.360057	-6.164655E-1
03/06/2025  21:46:53.360557	-6.500023E-1
03/06/2025  21:46:53.361057	-6.783295E-1
03/06/2025  21:46:53.361557	-6.981912E-1
03/06/2025  21:46:53.362057	-7.125176E-1
03/06/2025  21:46:53.362557	-6.864696E-1
03/06/2025  21:46:53.363057	-6.809344E-1
03/06/2025  21:46:53.363557	-6.884232E-1
03/06/2025  21:46:53.364057	-6.724687E-1
03/06/2025  21:46:53.364557	-6.509791E-1
03/06/2025  21:46:53.365057	-6.249311E-1
03/06/2025  21:46:53.365557	-5.995342E-1
03/06/2025  21:46:53.366057	-5.435310E-1
03/06/2025  21:46:53.366557	-5.021797E-1
03/06/2025  21:46:53.367057	-4.702708E-1
03/06/2025  21:46:53.367557	-4.201284E-1
03/06/2025  21:46:53.368057	-4.132908E-1
03/06/2025  21:46:53.368557	-3.716139E-1
03/06/2025  21:46:53.369057	-3.090986E-1
03/06/2025  21:46:53.369557	-2.478857E-1
03/06/2025  21:46:53.370057	-2.123953E-1
03/06/2025  21:46:53.370557	-2.166281E-1
03/06/2025  21:46:53.371057	-2.019761E-1
03/06/2025  21:46:53.371557	-2.006737E-1
03/06/2025  21:46:53.372057	-1.853704E-1
03/06/2025  21:46:53.372557	-1.785328E-1
03/06/2025  21:46:53.373057	-2.163025E-1
03/06/2025  21:46:53.373557	-2.169537E-1
03/06/2025  21:46:53.374057	-2.560257E-1
03/06/2025  21:46:53.374557	-2.690498E-1
03/06/2025  21:46:53.375057	-3.380771E-1
03/06/2025  21:46:53.375557	-3.152850E-1
03/06/2025  21:46:53.376057	-3.608691E-1
03/06/2025  21:46:53.376557	-4.051508E-1
03/06/2025  21:46:53.377057	-4.263148E-1
03/06/2025  21:46:53.377557	-5.093429E-1
03/06/2025  21:46:53.378057	-5.337629E-1
03/06/2025  21:46:53.378557	-5.757654E-1
03/06/2025  21:46:53.379057	-5.930222E-1
03/06/2025  21:46:53.379557	-6.206983E-1
03/06/2025  21:46:53.380057	-6.555375E-1
03/06/2025  21:46:53.380557	-6.936328E-1
03/06/2025  21:46:53.381057	-7.209832E-1
03/06/2025  21:46:53.381557	-7.118664E-1
03/06/2025  21:46:53.382057	-7.359608E-1
03/06/2025  21:46:53.382557	-7.310768E-1
03/06/2025  21:46:53.383057	-7.073080E-1
03/06/2025  21:46:53.383557	-6.975400E-1
03/06/2025  21:46:53.384057	-6.591191E-1
03/06/2025  21:46:53.384557	-6.581423E-1
03/06/2025  21:46:53.385057	-6.506535E-1
03/06/2025  21:46:53.385557	-5.959526E-1
03/06/2025  21:46:53.386057	-5.669742E-1
03/06/2025  21:46:53.386557	-4.803645E-1
03/06/2025  21:46:53.387057	-4.601772E-1
03/06/2025  21:46:53.387557	-4.276172E-1
03/06/2025  21:46:53.388057	-3.904987E-1
03/06/2025  21:46:53.388557	-3.725907E-1
03/06/2025  21:46:53.389057	-3.156106E-1
03/06/2025  21:46:53.389557	-2.889114E-1
03/06/2025  21:46:53.390057	-2.801202E-1
03/06/2025  21:46:53.390557	-2.524441E-1
03/06/2025  21:46:53.391057	-2.273729E-1
03/06/2025  21:46:53.391557	-2.195585E-1
03/06/2025  21:46:53.392057	-1.922080E-1
03/06/2025  21:46:53.392557	-2.133721E-1
03/06/2025  21:46:53.393057	-1.964408E-1
03/06/2025  21:46:53.393557	-2.163025E-1
03/06/2025  21:46:53.394057	-2.078369E-1
03/06/2025  21:46:53.394557	-2.410481E-1
03/06/2025  21:46:53.395057	-2.732826E-1
03/06/2025  21:46:53.395557	-3.107266E-1
03/06/2025  21:46:53.396057	-3.488219E-1
03/06/2025  21:46:53.396557	-4.233844E-1
03/06/2025  21:46:53.397057	-4.699452E-1
03/06/2025  21:46:53.397557	-5.005517E-1
03/06/2025  21:46:53.398057	-5.217157E-1
03/06/2025  21:46:53.398557	-5.396237E-1
03/06/2025  21:46:53.399057	-5.975806E-1
03/06/2025  21:46:53.399557	-6.343735E-1
03/06/2025  21:46:53.400057	-6.405599E-1
03/06/2025  21:46:53.400557	-6.796319E-1
03/06/2025  21:46:53.401057	-6.734455E-1
03/06/2025  21:46:53.401557	-7.017728E-1
03/06/2025  21:46:53.402057	-7.255416E-1
03/06/2025  21:46:53.402557	-7.138200E-1
03/06/2025  21:46:53.403057	-6.936328E-1
03/06/2025  21:46:53.403557	-7.164248E-1
03/06/2025  21:46:53.404057	-6.581423E-1
03/06/2025  21:46:53.404557	-6.503279E-1
03/06/2025  21:46:53.405057	-6.317687E-1
03/06/2025  21:46:53.405557	-5.259485E-1
03/06/2025  21:46:53.406057	-5.285533E-1
03/06/2025  21:46:53.406557	-4.878533E-1
03/06/2025  21:46:53.407057	-4.360828E-1
03/06/2025  21:46:53.407557	-4.028715E-1
03/06/2025  21:46:53.408057	-3.719395E-1
03/06/2025  21:46:53.408557	-3.074706E-1
03/06/2025  21:46:53.409057	-2.697010E-1
03/06/2025  21:46:53.409557	-2.390945E-1
03/06/2025  21:46:53.410057	-2.091393E-1
03/06/2025  21:46:53.410557	-1.850448E-1
03/06/2025  21:46:53.411057	-1.671368E-1
03/06/2025  21:46:53.411557	-1.850448E-1
03/06/2025  21:46:53.412057	-1.544384E-1
03/06/2025  21:46:53.412557	-1.505312E-1
03/06/2025  21:46:53.413057	-1.762536E-1
03/06/2025  21:46:53.413557	-2.058833E-1
03/06/2025  21:46:53.414057	-2.215121E-1
03/06/2025  21:46:53.414557	-2.273729E-1
03/06/2025  21:46:53.415057	-2.143489E-1
03/06/2025  21:46:53.415557	-2.745850E-1
03/06/2025  21:46:53.416057	-3.097498E-1
03/06/2025  21:46:53.416557	-3.794283E-1
03/06/2025  21:46:53.417057	-4.145932E-1
03/06/2025  21:46:53.417557	-4.487812E-1
03/06/2025  21:46:53.418057	-5.015285E-1
03/06/2025  21:46:53.418557	-5.318093E-1
03/06/2025  21:46:53.419057	-5.874870E-1
03/06/2025  21:46:53.419557	-6.106046E-1
03/06/2025  21:46:53.420057	-6.317687E-1
03/06/2025  21:46:53.420557	-6.542351E-1
03/06/2025  21:46:53.421057	-6.643287E-1
03/06/2025  21:46:53.421557	-6.812600E-1
03/06/2025  21:46:53.422057	-6.767015E-1
03/06/2025  21:46:53.422557	-6.718175E-1
03/06/2025  21:46:53.423057	-6.594447E-1
03/06/2025  21:46:53.423557	-6.386063E-1
03/06/2025  21:46:53.424057	-6.197215E-1
03/06/2025  21:46:53.424557	-6.148375E-1
03/06/2025  21:46:53.425057	-6.063718E-1
03/06/2025  21:46:53.425557	-5.575318E-1
03/06/2025  21:46:53.426057	-5.112965E-1
03/06/2025  21:46:53.426557	-4.497580E-1
03/06/2025  21:46:53.427057	-3.940803E-1
03/06/2025  21:46:53.427557	-3.751955E-1
03/06/2025  21:46:53.428057	-3.338442E-1
03/06/2025  21:46:53.428557	-2.882602E-1
03/06/2025  21:46:53.429057	-2.267217E-1
03/06/2025  21:46:53.429557	-1.954640E-1
03/06/2025  21:46:53.430057	-1.782072E-1
03/06/2025  21:46:53.430557	-1.443448E-1
03/06/2025  21:46:53.431057	-1.397864E-1
03/06/2025  21:46:53.431557	-1.117847E-1
03/06/2025  21:46:53.432057	-1.287160E-1
03/06/2025  21:46:53.432557	-1.362048E-1
03/06/2025  21:46:53.433057	-1.342512E-1
03/06/2025  21:46:53.433557	-1.423912E-1
03/06/2025  21:46:53.434057	-1.397864E-1
03/06/2025  21:46:53.434557	-1.840680E-1
03/06/2025  21:46:53.435057	-2.104417E-1
03/06/2025  21:46:53.435557	-2.537465E-1
03/06/2025  21:46:53.436057	-2.918418E-1
03/06/2025  21:46:53.436557	-3.364491E-1
03/06/2025  21:46:53.437057	-3.677067E-1
03/06/2025  21:46:53.437557	-4.233844E-1
03/06/2025  21:46:53.438057	-4.377108E-1
03/06/2025  21:46:53.438557	-4.979469E-1
03/06/2025  21:46:53.439057	-5.422285E-1
03/06/2025  21:46:53.439557	-5.842310E-1
03/06/2025  21:46:53.440057	-5.992086E-1
03/06/2025  21:46:53.440557	-6.421879E-1
03/06/2025  21:46:53.441057	-6.392575E-1
03/06/2025  21:46:53.441557	-6.724687E-1
03/06/2025  21:46:53.442057	-6.988424E-1
03/06/2025  21:46:53.442557	-6.799575E-1
03/06/2025  21:46:53.443057	-6.473975E-1
03/06/2025  21:46:53.443557	-6.158143E-1
03/06/2025  21:46:53.444057	-6.314431E-1
03/06/2025  21:46:53.444557	-5.962782E-1
03/06/2025  21:46:53.445057	-5.728350E-1
03/06/2025  21:46:53.445557	-5.428798E-1
03/06/2025  21:46:53.446057	-4.774341E-1
03/06/2025  21:46:53.446557	-4.422692E-1
03/06/2025  21:46:53.447057	-4.188260E-1
03/06/2025  21:46:53.447557	-3.585899E-1
03/06/2025  21:46:53.448057	-2.664450E-1
03/06/2025  21:46:53.448557	-2.589561E-1
03/06/2025  21:46:53.449057	-2.286753E-1
03/06/2025  21:46:53.449557	-1.980689E-1
03/06/2025  21:46:53.450057	-1.892776E-1
03/06/2025  21:46:53.450557	-9.745831E-2
03/06/2025  21:46:53.451057	-1.049471E-1
03/06/2025  21:46:53.451557	-1.059239E-1
03/06/2025  21:46:53.452057	-8.280628E-2
03/06/2025  21:46:53.452557	-9.127190E-2
03/06/2025  21:46:53.453057	-1.029935E-1
03/06/2025  21:46:53.453557	-1.322976E-1
03/06/2025  21:46:53.454057	-1.391352E-1
03/06/2025  21:46:53.454557	-1.726720E-1
03/06/2025  21:46:53.455057	-1.961152E-1
03/06/2025  21:46:53.455557	-1.909056E-1
03/06/2025  21:46:53.456057	-2.739338E-1
03/06/2025  21:46:53.456557	-3.292858E-1
03/06/2025  21:46:53.457057	-3.729163E-1
03/06/2025  21:46:53.457557	-4.051508E-1
03/06/2025  21:46:53.458057	-4.471532E-1
03/06/2025  21:46:53.458557	-4.845973E-1
03/06/2025  21:46:53.459057	-5.308325E-1
03/06/2025  21:46:53.459557	-5.565550E-1
03/06/2025  21:46:53.460057	-5.679510E-1
03/06/2025  21:46:53.460557	-6.294895E-1
03/06/2025  21:46:53.461057	-6.216751E-1
03/06/2025  21:46:53.461557	-6.320943E-1
03/06/2025  21:46:53.462057	-6.548863E-1
03/06/2025  21:46:53.462557	-6.236287E-1
03/06/2025  21:46:53.463057	-6.203727E-1
03/06/2025  21:46:53.463557	-6.135351E-1
03/06/2025  21:46:53.464057	-5.773934E-1
03/06/2025  21:46:53.464557	-5.562294E-1
03/06/2025  21:46:53.465057	-5.155293E-1
03/06/2025  21:46:53.465557	-4.761317E-1
03/06/2025  21:46:53.466057	-4.399900E-1
03/06/2025  21:46:53.466557	-3.950571E-1
03/06/2025  21:46:53.467057	-3.279834E-1
03/06/2025  21:46:53.467557	-3.677067E-1
03/06/2025  21:46:53.468057	-2.820738E-1
03/06/2025  21:46:53.468557	-2.237913E-1
03/06/2025  21:46:53.469057	-1.980689E-1
03/06/2025  21:46:53.469557	-1.342512E-1
03/06/2025  21:46:53.470057	-1.547640E-1
03/06/2025  21:46:53.470557	-1.020167E-1
03/06/2025  21:46:53.471057	-9.094630E-2
03/06/2025  21:46:53.471557	-8.606229E-2
03/06/2025  21:46:53.472057	-4.145502E-2
03/06/2025  21:46:53.472557	-8.280628E-2
03/06/2025  21:46:53.473057	-8.410869E-2
03/06/2025  21:46:53.473557	-1.042959E-1
03/06/2025  21:46:53.474057	-1.121103E-1
03/06/2025  21:46:53.474557	-1.339256E-1
03/06/2025  21:46:53.475057	-1.850448E-1
03/06/2025  21:46:53.475557	-1.990457E-1
03/06/2025  21:46:53.476057	-2.589561E-1
03/06/2025  21:46:53.476557	-2.758874E-1
03/06/2025  21:46:53.477057	-3.322162E-1
03/06/2025  21:46:53.477557	-3.745443E-1
03/06/2025  21:46:53.478057	-4.152444E-1
03/06/2025  21:46:53.478557	-4.351060E-1
03/06/2025  21:46:53.479057	-4.406412E-1
03/06/2025  21:46:53.479557	-4.888301E-1
03/06/2025  21:46:53.480057	-5.236693E-1
03/06/2025  21:46:53.480557	-5.425541E-1
03/06/2025  21:46:53.481057	-5.751142E-1
03/06/2025  21:46:53.481557	-5.738118E-1
03/06/2025  21:46:53.482057	-6.203727E-1
03/06/2025  21:46:53.482557	-6.005110E-1
03/06/2025  21:46:53.483057	-5.871614E-1
03/06/2025  21:46:53.483557	-5.728350E-1
03/06/2025  21:46:53.484057	-5.679510E-1
03/06/2025  21:46:53.484557	-5.331117E-1
03/06/2025  21:46:53.485057	-5.109709E-1
03/06/2025  21:46:53.485557	-4.618052E-1
03/06/2025  21:46:53.486057	-4.155700E-1
03/06/2025  21:46:53.486557	-3.605435E-1
03/06/2025  21:46:53.487057	-3.136570E-1
03/06/2025  21:46:53.487557	-2.762130E-1
03/06/2025  21:46:53.488057	-2.312801E-1
03/06/2025  21:46:53.488557	-1.814632E-1
03/06/2025  21:46:53.489057	-1.752768E-1
03/06/2025  21:46:53.489557	-1.365304E-1
03/06/2025  21:46:53.490057	-1.013655E-1
03/06/2025  21:46:53.490557	-6.522386E-2
03/06/2025  21:46:53.491057	-1.052298E-2
03/06/2025  21:46:53.491557	-3.689662E-2
03/06/2025  21:46:53.492057	-2.582620E-2
03/06/2025  21:46:53.492557	-1.215098E-2
03/06/2025  21:46:53.493057	-2.094220E-2
03/06/2025  21:46:53.493557	-2.452380E-2
03/06/2025  21:46:53.494057	-3.917582E-2
03/06/2025  21:46:53.494557	-5.838625E-2
03/06/2025  21:46:53.495057	-8.801589E-2
03/06/2025  21:46:53.495557	-1.117847E-1
03/06/2025  21:46:53.496057	-2.049065E-1
03/06/2025  21:46:53.496557	-2.351873E-1
03/06/2025  21:46:53.497057	-2.677474E-1
03/06/2025  21:46:53.497557	-2.931442E-1
03/06/2025  21:46:53.498057	-2.924930E-1
03/06/2025  21:46:53.498557	-3.621715E-1
03/06/2025  21:46:53.499057	-4.028715E-1
03/06/2025  21:46:53.499557	-4.494324E-1
03/06/2025  21:46:53.500057	-4.653868E-1
03/06/2025  21:46:53.500557	-4.621308E-1
03/06/2025  21:46:53.501057	-4.911093E-1
03/06/2025  21:46:53.501557	-4.943653E-1
03/06/2025  21:46:53.502057	-4.982725E-1
03/06/2025  21:46:53.502557	-4.914349E-1
03/06/2025  21:46:53.503057	-4.868765E-1
03/06/2025  21:46:53.503557	-4.816669E-1
03/06/2025  21:46:53.504057	-4.647356E-1
03/06/2025  21:46:53.504557	-4.614796E-1
03/06/2025  21:46:53.505057	-4.067788E-1
03/06/2025  21:46:53.505557	-3.657531E-1
03/06/2025  21:46:53.506057	-3.133314E-1
03/06/2025  21:46:53.506557	-2.521185E-1
03/06/2025  21:46:53.507057	-2.198841E-1
03/06/2025  21:46:53.507557	-1.401120E-1
03/06/2025  21:46:53.508057	-1.264367E-1
03/06/2025  21:46:53.508557	-9.192310E-2
03/06/2025  21:46:53.509057	-5.903745E-2
03/06/2025  21:46:53.509557	-3.982702E-2
03/06/2025  21:46:53.510057	8.730365E-4
03/06/2025  21:46:53.510557	2.854908E-2
03/06/2025  21:46:53.511057	6.403953E-2
03/06/2025  21:46:53.511557	7.673795E-2
03/06/2025  21:46:53.512057	1.070188E-1
03/06/2025  21:46:53.512557	7.999395E-2
03/06/2025  21:46:53.513057	6.403953E-2
03/06/2025  21:46:53.513557	5.362031E-2
03/06/2025  21:46:53.514057	2.985148E-2
03/06/2025  21:46:53.514557	1.226905E-2
03/06/2025  21:46:53.515057	-4.010971E-3
03/06/2025  21:46:53.515557	-4.112942E-2
03/06/2025  21:46:53.516057	-9.713271E-2
03/06/2025  21:46:53.516557	-1.150407E-1
03/06/2025  21:46:53.517057	-1.576944E-1
03/06/2025  21:46:53.517557	-2.192329E-1
03/06/2025  21:46:53.518057	-2.250937E-1
03/06/2025  21:46:53.518557	-2.869578E-1
03/06/2025  21:46:53.519057	-3.117034E-1
03/06/2025  21:46:53.519557	-3.139826E-1
03/06/2025  21:46:53.520057	-3.611947E-1
03/06/2025  21:46:53.520557	-3.680323E-1
03/06/2025  21:46:53.521057	-3.755211E-1
03/06/2025  21:46:53.521557	-3.862659E-1
03/06/2025  21:46:53.522057	-3.891963E-1
03/06/2025  21:46:53.522557	-4.022203E-1
03/06/2025  21:46:53.523057	-3.546827E-1
03/06/2025  21:46:53.523557	-3.576131E-1
03/06/2025  21:46:53.524057	-3.312394E-1
03/06/2025  21:46:53.524557	-3.475195E-1
03/06/2025  21:46:53.525057	-2.810970E-1
03/06/2025  21:46:53.525557	-2.488625E-1
03/06/2025  21:46:53.526057	-1.837424E-1
03/06/2025  21:46:53.526557	-7.922468E-2
03/06/2025  21:46:53.527057	-9.908631E-2
03/06/2025  21:46:53.527557	-4.471103E-2
03/06/2025  21:46:53.528057	-7.918176E-3
03/06/2025  21:46:53.528557	2.236267E-2
03/06/2025  21:46:53.529057	5.362031E-2
03/06/2025  21:46:53.529557	1.132052E-1
03/06/2025  21:46:53.530057	1.451140E-1
03/06/2025  21:46:53.530557	1.740925E-1
03/06/2025  21:46:53.531057	1.871165E-1
03/06/2025  21:46:53.531557	2.082805E-1
03/06/2025  21:46:53.532057	2.203278E-1
03/06/2025  21:46:53.532557	1.952565E-1
03/06/2025  21:46:53.533057	1.692085E-1
03/06/2025  21:46:53.533557	1.649757E-1
03/06/2025  21:46:53.534057	1.555333E-1
03/06/2025  21:46:53.534557	1.320900E-1
03/06/2025  21:46:53.535057	1.232988E-1
03/06/2025  21:46:53.535557	8.031955E-2
03/06/2025  21:46:53.536057	7.576114E-2
03/06/2025  21:46:53.536557	2.138587E-2
03/06/2025  21:46:53.537057	-1.149978E-2
03/06/2025  21:46:53.537557	-6.620066E-2
03/06/2025  21:46:53.538057	-8.020148E-2
03/06/2025  21:46:53.538557	-1.388096E-1
03/06/2025  21:46:53.539057	-2.117441E-1
03/06/2025  21:46:53.539557	-2.205353E-1
03/06/2025  21:46:53.540057	-2.423505E-1
03/06/2025  21:46:53.540557	-2.638401E-1
03/06/2025  21:46:53.541057	-2.807714E-1
03/06/2025  21:46:53.541557	-2.710034E-1
03/06/2025  21:46:53.542057	-3.029122E-1
03/06/2025  21:46:53.542557	-2.680730E-1
03/06/2025  21:46:53.543057	-2.589561E-1
03/06/2025  21:46:53.543557	-2.462577E-1
03/06/2025  21:46:53.544057	-2.390945E-1
03/06/2025  21:46:53.544557	-2.068601E-1
03/06/2025  21:46:53.545057	-1.791840E-1
03/06/2025  21:46:53.545557	-1.489032E-1
03/06/2025  21:46:53.546057	-1.342512E-1
03/06/2025  21:46:53.546557	-7.075907E-2
03/06/2025  21:46:53.547057	-2.712860E-2
03/06/2025  21:46:53.547557	3.375868E-2
03/06/2025  21:46:53.548057	9.204117E-2
03/06/2025  21:46:53.548557	1.229732E-1
03/06/2025  21:46:53.549057	1.565101E-1
03/06/2025  21:46:53.549557	2.001405E-1
03/06/2025  21:46:53.550057	2.196766E-1
03/06/2025  21:46:53.550557	2.743774E-1
03/06/2025  21:46:53.551057	2.734006E-1
03/06/2025  21:46:53.551557	2.890295E-1
03/06/2025  21:46:53.552057	2.773078E-1
03/06/2025  21:46:53.552557	3.160543E-1
03/06/2025  21:46:53.553057	2.346542E-1
03/06/2025  21:46:53.553557	2.343286E-1
03/06/2025  21:46:53.554057	2.177230E-1
03/06/2025  21:46:53.554557	2.027453E-1
03/06/2025  21:46:53.555057	2.219558E-1
03/06/2025  21:46:53.555557	1.460908E-1
03/06/2025  21:46:53.556057	8.097075E-2
03/06/2025  21:46:53.556557	5.882992E-2
03/06/2025  21:46:53.557057	3.961949E-2
03/06/2025  21:46:53.557557	-1.508139E-2
03/06/2025  21:46:53.558057	-4.503663E-2
03/06/2025  21:46:53.558557	-9.583030E-2
03/06/2025  21:46:53.559057	-1.202503E-1
03/06/2025  21:46:53.559557	-1.534616E-1
03/06/2025  21:46:53.560057	-1.687648E-1
03/06/2025  21:46:53.560557	-2.123953E-1
03/06/2025  21:46:53.561057	-2.446297E-1
03/06/2025  21:46:53.561557	-2.407225E-1
03/06/2025  21:46:53.562057	-2.316057E-1
03/06/2025  21:46:53.562557	-2.794690E-1
03/06/2025  21:46:53.563057	-2.332337E-1
03/06/2025  21:46:53.563557	-2.189073E-1
03/06/2025  21:46:53.564057	-1.925336E-1
03/06/2025  21:46:53.564557	-1.541128E-1
03/06/2025  21:46:53.565057	-1.472752E-1
03/06/2025  21:46:53.565557	-1.130871E-1
03/06/2025  21:46:53.566057	-6.457266E-2
03/06/2025  21:46:53.566557	-8.569377E-3
03/06/2025  21:46:53.567057	4.352670E-2
03/06/2025  21:46:53.567557	6.013232E-2
03/06/2025  21:46:53.568057	8.390116E-2
03/06/2025  21:46:53.568557	1.402300E-1
03/06/2025  21:46:53.569057	2.408406E-1
03/06/2025  21:46:53.569557	2.349798E-1
03/06/2025  21:46:53.570057	2.519110E-1
03/06/2025  21:46:53.570557	2.714470E-1
03/06/2025  21:46:53.571057	2.987975E-1
03/06/2025  21:46:53.571557	3.479631E-1
03/06/2025  21:46:53.572057	3.238687E-1
03/06/2025  21:46:53.572557	3.027047E-1
03/06/2025  21:46:53.573057	2.900063E-1
03/06/2025  21:46:53.573557	2.711214E-1
03/06/2025  21:46:53.574057	2.567950E-1
03/06/2025  21:46:53.574557	2.138157E-1
03/06/2025  21:46:53.575057	1.923261E-1
03/06/2025  21:46:53.575557	1.460908E-1
03/06/2025  21:46:53.576057	9.497157E-2
03/06/2025  21:46:53.576557	8.487796E-2
03/06/2025  21:46:53.577057	2.106027E-2
03/06/2025  21:46:53.577557	-1.345338E-2
03/06/2025  21:46:53.578057	-6.489826E-2
03/06/2025  21:46:53.578557	-1.062495E-1
03/06/2025  21:46:53.579057	-1.375072E-1
03/06/2025  21:46:53.579557	-1.658344E-1
03/06/2025  21:46:53.580057	-2.130465E-1
03/06/2025  21:46:53.580557	-2.312801E-1
03/06/2025  21:46:53.581057	-2.524441E-1
03/06/2025  21:46:53.581557	-3.061682E-1
03/06/2025  21:46:53.582057	-3.068194E-1
03/06/2025  21:46:53.582557	-2.931442E-1
03/06/2025  21:46:53.583057	-2.814226E-1
03/06/2025  21:46:53.583557	-2.488625E-1
03/06/2025  21:46:53.584057	-2.543977E-1
03/06/2025  21:46:53.584557	-2.228145E-1
03/06/2025  21:46:53.585057	-2.231401E-1
03/06/2025  21:46:53.585557	-1.749512E-1
03/06/2025  21:46:53.586057	-1.101567E-1
03/06/2025  21:46:53.586557	-8.541109E-2
03/06/2025  21:46:53.587057	-5.024624E-2
03/06/2025  21:46:53.587557	-1.573259E-2
03/06/2025  21:46:53.588057	3.213068E-2
03/06/2025  21:46:53.588557	-3.657102E-2
03/06/2025  21:46:53.589057	7.152834E-2
03/06/2025  21:46:53.589557	1.021348E-1
03/06/2025  21:46:53.590057	1.226476E-1
03/06/2025  21:46:53.590557	1.516261E-1
03/06/2025  21:46:53.591057	1.604173E-1
03/06/2025  21:46:53.591557	1.701853E-1
03/06/2025  21:46:53.592057	1.783253E-1
03/06/2025  21:46:53.592557	1.779997E-1
03/06/2025  21:46:53.593057	1.669293E-1
03/06/2025  21:46:53.593557	1.425092E-1
03/06/2025  21:46:53.594057	9.399477E-2
03/06/2025  21:46:53.594557	7.185394E-2
03/06/2025  21:46:53.595057	5.882992E-2
03/06/2025  21:46:53.595557	1.389706E-2
03/06/2025  21:46:53.596057	-5.806065E-2
03/06/2025  21:46:53.596557	-9.322550E-2
03/06/2025  21:46:53.597057	-1.309952E-1
03/06/2025  21:46:53.597557	-1.482520E-1
03/06/2025  21:46:53.598057	-1.974177E-1
03/06/2025  21:46:53.598557	-2.573281E-1
03/06/2025  21:46:53.599057	-3.035634E-1
03/06/2025  21:46:53.599557	-3.497987E-1
03/06/2025  21:46:53.600057	-3.507755E-1
03/06/2025  21:46:53.600557	-3.966851E-1
03/06/2025  21:46:53.601057	-4.295708E-1
03/06/2025  21:46:53.601557	-4.351060E-1
03/06/2025  21:46:53.602057	-4.390132E-1
03/06/2025  21:46:53.602557	-4.451996E-1
03/06/2025  21:46:53.603057	-4.425948E-1
03/06/2025  21:46:53.603557	-4.435716E-1
03/06/2025  21:46:53.604057	-4.250124E-1
03/06/2025  21:46:53.604557	-3.976619E-1
03/06/2025  21:46:53.605057	-4.149188E-1
03/06/2025  21:46:53.605557	-3.497987E-1
03/06/2025  21:46:53.606057	-3.038890E-1
03/06/2025  21:46:53.606557	-2.638401E-1
03/06/2025  21:46:53.607057	-2.208609E-1
03/06/2025  21:46:53.607557	-1.948128E-1
03/06/2025  21:46:53.608057	-1.534616E-1
03/06/2025  21:46:53.608557	-1.101567E-1
03/06/2025  21:46:53.609057	-6.750306E-2
03/06/2025  21:46:53.609557	-2.875661E-2
03/06/2025  21:46:53.610057	-6.620066E-2
03/06/2025  21:46:53.610557	-2.224460E-2
03/06/2025  21:46:53.611057	-1.215098E-2
03/06/2025  21:46:53.611557	1.617626E-2
03/06/2025  21:46:53.612057	4.515470E-2
03/06/2025  21:46:53.612557	8.361847E-3
03/06/2025  21:46:53.613057	-2.708569E-3
03/06/2025  21:46:53.613557	-2.289580E-2
03/06/2025  21:46:53.614057	-5.578145E-2
03/06/2025  21:46:53.614557	-6.717746E-2
03/06/2025  21:46:53.615057	-8.638789E-2
03/06/2025  21:46:53.615557	-1.342512E-1
03/06/2025  21:46:53.616057	-1.674624E-1
03/06/2025  21:46:53.616557	-2.182561E-1
03/06/2025  21:46:53.617057	-3.120290E-1
03/06/2025  21:46:53.617557	-3.296114E-1
03/06/2025  21:46:53.618057	-3.585899E-1
03/06/2025  21:46:53.618557	-3.927779E-1
03/06/2025  21:46:53.619057	-4.243612E-1
03/06/2025  21:46:53.619557	-4.852485E-1
03/06/2025  21:46:53.620057	-5.145525E-1
03/06/2025  21:46:53.620557	-5.409261E-1
03/06/2025  21:46:53.621057	-5.699046E-1
03/06/2025  21:46:53.621557	-5.604622E-1
03/06/2025  21:46:53.622057	-5.956270E-1
03/06/2025  21:46:53.622557	-5.757654E-1
03/06/2025  21:46:53.623057	-5.581830E-1
03/06/2025  21:46:53.623557	-5.552526E-1
03/06/2025  21:46:53.624057	-5.399493E-1
03/06/2025  21:46:53.624557	-5.318093E-1
03/06/2025  21:46:53.625057	-5.142269E-1
03/06/2025  21:46:53.625557	-4.816669E-1
03/06/2025  21:46:53.626057	-4.237100E-1
03/06/2025  21:46:53.626557	-4.012435E-1
03/06/2025  21:46:53.627057	-3.810563E-1
03/06/2025  21:46:53.627557	-3.136570E-1
03/06/2025  21:46:53.628057	-2.570025E-1
03/06/2025  21:46:53.628557	-2.088137E-1
03/06/2025  21:46:53.629057	-1.889520E-1
03/06/2025  21:46:53.629557	-1.580200E-1
03/06/2025  21:46:53.630057	-1.267623E-1
03/06/2025  21:46:53.630557	-1.150407E-1
03/06/2025  21:46:53.631057	-9.583030E-2
03/06/2025  21:46:53.631557	-9.973751E-2
03/06/2025  21:46:53.632057	-1.059239E-1
03/06/2025  21:46:53.632557	-9.062070E-2
03/06/2025  21:46:53.633057	-9.224870E-2
03/06/2025  21:46:53.633557	-1.352280E-1
03/06/2025  21:46:53.634057	-1.436936E-1
03/06/2025  21:46:53.634557	-1.596480E-1
03/06/2025  21:46:53.635057	-1.899288E-1
03/06/2025  21:46:53.635557	-2.335593E-1
03/06/2025  21:46:53.636057	-2.654681E-1
03/06/2025  21:46:53.636557	-2.990050E-1
03/06/2025  21:46:53.637057	-3.530547E-1
03/06/2025  21:46:53.637557	-3.891963E-1
03/06/2025  21:46:53.638057	-4.243612E-1
03/06/2025  21:46:53.638557	-4.780853E-1
03/06/2025  21:46:53.639057	-5.295301E-1
03/06/2025  21:46:53.639557	-5.467870E-1
03/06/2025  21:46:53.640057	-5.585086E-1
03/06/2025  21:46:53.640557	-5.767422E-1
03/06/2025  21:46:53.641057	-6.229775E-1
03/06/2025  21:46:53.641557	-6.360015E-1
03/06/2025  21:46:53.642057	-6.382807E-1
03/06/2025  21:46:53.642557	-6.288383E-1
03/06/2025  21:46:53.643057	-6.099534E-1
03/06/2025  21:46:53.643557	-6.076742E-1
03/06/2025  21:46:53.644057	-5.624158E-1
03/06/2025  21:46:53.644557	-5.565550E-1
03/06/2025  21:46:53.645057	-5.249717E-1
03/06/2025  21:46:53.645557	-5.295301E-1
03/06/2025  21:46:53.646057	-4.640844E-1
03/06/2025  21:46:53.646557	-4.318500E-1
03/06/2025  21:46:53.647057	-3.882195E-1
03/06/2025  21:46:53.647557	-2.670962E-1
03/06/2025  21:46:53.648057	-3.090986E-1
03/06/2025  21:46:53.648557	-2.508161E-1
03/06/2025  21:46:53.649057	-2.205353E-1
03/06/2025  21:46:53.649557	-1.834168E-1
03/06/2025  21:46:53.650057	-1.778816E-1
03/06/2025  21:46:53.650557	-1.332744E-1
03/06/2025  21:46:53.651057	-1.137383E-1
03/06/2025  21:46:53.651557	-1.218783E-1
03/06/2025  21:46:53.652057	-1.026679E-1
03/06/2025  21:46:53.652557	-1.101567E-1
03/06/2025  21:46:53.653057	-1.326232E-1
03/06/2025  21:46:53.653557	-1.567176E-1
03/06/2025  21:46:53.654057	-1.602992E-1
03/06/2025  21:46:53.654557	-1.762536E-1
03/06/2025  21:46:53.655057	-2.009993E-1
03/06/2025  21:46:53.655557	-2.472345E-1
03/06/2025  21:46:53.656057	-2.869578E-1
03/06/2025  21:46:53.656557	-3.520779E-1
03/06/2025  21:46:53.657057	-3.504499E-1
03/06/2025  21:46:53.657557	-4.113372E-1
03/06/2025  21:46:53.658057	-4.357572E-1
03/06/2025  21:46:53.658557	-4.972957E-1
03/06/2025  21:46:53.659057	-5.350653E-1
03/06/2025  21:46:53.659557	-5.555782E-1
03/06/2025  21:46:53.660057	-6.050694E-1
03/06/2025  21:46:53.660557	-6.405599E-1
03/06/2025  21:46:53.661057	-6.259079E-1
03/06/2025  21:46:53.661557	-6.447927E-1
03/06/2025  21:46:53.662057	-6.653055E-1
03/06/2025  21:46:53.662557	-6.630263E-1
03/06/2025  21:46:53.663057	-6.600959E-1
03/06/2025  21:46:53.663557	-6.360015E-1
03/06/2025  21:46:53.664057	-5.982318E-1
03/06/2025  21:46:53.664557	-5.627414E-1
03/06/2025  21:46:53.665057	-5.448334E-1
03/06/2025  21:46:53.665557	-5.340885E-1
03/06/2025  21:46:53.666057	-4.745037E-1
03/06/2025  21:46:53.666557	-4.220820E-1
03/06/2025  21:46:53.667057	-4.054764E-1
03/06/2025  21:46:53.667557	-3.680323E-1
03/06/2025  21:46:53.668057	-3.458915E-1
03/06/2025  21:46:53.668557	-2.771898E-1
03/06/2025  21:46:53.669057	-2.195585E-1
03/06/2025  21:46:53.669557	-2.058833E-1
03/06/2025  21:46:53.670057	-1.707184E-1
03/06/2025  21:46:53.670557	-1.537872E-1
03/06/2025  21:46:53.671057	-1.270879E-1
03/06/2025  21:46:53.671557	-1.173199E-1
03/06/2025  21:46:53.672057	-9.941191E-2
03/06/2025  21:46:53.672557	-1.215527E-1
03/06/2025  21:46:53.673057	-1.541128E-1
03/06/2025  21:46:53.673557	-1.355536E-1
03/06/2025  21:46:53.674057	-2.032785E-1
03/06/2025  21:46:53.674557	-2.101161E-1
03/06/2025  21:46:53.675057	-2.416993E-1
03/06/2025  21:46:53.675557	-2.778410E-1
03/06/2025  21:46:53.676057	-2.843530E-1
03/06/2025  21:46:53.676557	-3.543571E-1
03/06/2025  21:46:53.677057	-3.875683E-1
03/06/2025  21:46:53.677557	-4.478044E-1
03/06/2025  21:46:53.678057	-4.562700E-1
03/06/2025  21:46:53.678557	-5.031565E-1
03/06/2025  21:46:53.679057	-5.581830E-1
03/06/2025  21:46:53.679557	-5.926966E-1
03/06/2025  21:46:53.680057	-6.073486E-1
03/06/2025  21:46:53.680557	-6.307919E-1
03/06/2025  21:46:53.681057	-6.386063E-1
03/06/2025  21:46:53.681557	-6.640031E-1
03/06/2025  21:46:53.682057	-6.770271E-1
03/06/2025  21:46:53.682557	-6.786551E-1
03/06/2025  21:46:53.683057	-6.451183E-1
03/06/2025  21:46:53.683557	-6.360015E-1
03/06/2025  21:46:53.684057	-6.242799E-1
03/06/2025  21:46:53.684557	-6.057206E-1
03/06/2025  21:46:53.685057	-5.611134E-1
03/06/2025  21:46:53.685557	-5.060869E-1
03/06/2025  21:46:53.686057	-4.881789E-1
03/06/2025  21:46:53.686557	-4.315244E-1
03/06/2025  21:46:53.687057	-3.810563E-1
03/06/2025  21:46:53.687557	-3.481707E-1
03/06/2025  21:46:53.688057	-3.126802E-1
03/06/2025  21:46:53.688557	-2.732826E-1
03/06/2025  21:46:53.689057	-2.283497E-1
03/06/2025  21:46:53.689557	-1.938360E-1
03/06/2025  21:46:53.690057	-1.668112E-1
03/06/2025  21:46:53.690557	-1.485776E-1
03/06/2025  21:46:53.691057	-1.313208E-1
03/06/2025  21:46:53.691557	-1.244831E-1
03/06/2025  21:46:53.692057	-9.810951E-2
03/06/2025  21:46:53.692557	-4.861824E-2
03/06/2025  21:46:53.693057	-1.095055E-1
03/06/2025  21:46:53.693557	-1.502056E-1
03/06/2025  21:46:53.694057	-1.508568E-1
03/06/2025  21:46:53.694557	-1.762536E-1
03/06/2025  21:46:53.695057	-2.062089E-1
03/06/2025  21:46:53.695557	-2.755618E-1
03/06/2025  21:46:53.696057	-3.120290E-1
03/06/2025  21:46:53.696557	-3.384027E-1
03/06/2025  21:46:53.697057	-3.712883E-1
03/06/2025  21:46:53.697557	-3.901731E-1
03/06/2025  21:46:53.698057	-4.660380E-1
03/06/2025  21:46:53.698557	-5.233437E-1
03/06/2025  21:46:53.699057	-5.529734E-1
03/06/2025  21:46:53.699557	-5.643694E-1
03/06/2025  21:46:53.700057	-5.728350E-1
03/06/2025  21:46:53.700557	-6.089766E-1
03/06/2025  21:46:53.701057	-6.311175E-1
03/06/2025  21:46:53.701557	-6.574911E-1
03/06/2025  21:46:53.702057	-6.434903E-1
03/06/2025  21:46:53.702557	-6.613983E-1
03/06/2025  21:46:53.703057	-6.522815E-1
03/06/2025  21:46:53.703557	-6.428391E-1
03/06/2025  21:46:53.704057	-6.246055E-1
03/06/2025  21:46:53.704557	-5.858590E-1
03/06/2025  21:46:53.705057	-5.751142E-1
03/06/2025  21:46:53.705557	-5.376701E-1
03/06/2025  21:46:53.706057	-4.803645E-1
03/06/2025  21:46:53.706557	-4.422692E-1
03/06/2025  21:46:53.707057	-4.025459E-1
03/06/2025  21:46:53.707557	-3.563107E-1
03/06/2025  21:46:53.708057	-3.367747E-1
03/06/2025  21:46:53.708557	-2.950978E-1
03/06/2025  21:46:53.709057	-2.589561E-1
03/06/2025  21:46:53.709557	-3.084474E-1
03/06/2025  21:46:53.710057	-2.140233E-1
03/06/2025  21:46:53.710557	-1.616016E-1
03/06/2025  21:46:53.711057	-1.668112E-1
03/06/2025  21:46:53.711557	-1.235063E-1
03/06/2025  21:46:53.712057	-1.384840E-1
03/06/2025  21:46:53.712557	-1.349024E-1
03/06/2025  21:46:53.713057	-1.462984E-1
03/06/2025  21:46:53.713557	-1.567176E-1
03/06/2025  21:46:53.714057	-1.573688E-1
03/06/2025  21:46:53.714557	-1.896032E-1
03/06/2025  21:46:53.715057	-2.205353E-1
03/06/2025  21:46:53.715557	-2.801202E-1
03/06/2025  21:46:53.716057	-3.227738E-1
03/06/2025  21:46:53.716557	-3.361235E-1
03/06/2025  21:46:53.717057	-3.953827E-1
03/06/2025  21:46:53.717557	-4.399900E-1
03/06/2025  21:46:53.718057	-4.673404E-1
03/06/2025  21:46:53.718557	-4.937141E-1
03/06/2025  21:46:53.719057	-5.542758E-1
03/06/2025  21:46:53.719557	-5.780446E-1
03/06/2025  21:46:53.720057	-5.992086E-1
03/06/2025  21:46:53.720557	-6.386063E-1
03/06/2025  21:46:53.721057	-6.145119E-1
03/06/2025  21:46:53.721557	-6.539095E-1
03/06/2025  21:46:53.722057	-6.698639E-1
03/06/2025  21:46:53.722557	-6.672591E-1
03/06/2025  21:46:53.723057	-6.513047E-1
03/06/2025  21:46:53.723557	-6.220007E-1
03/06/2025  21:46:53.724057	-6.203727E-1
03/06/2025  21:46:53.724557	-6.125583E-1
03/06/2025  21:46:53.725057	-5.806494E-1
03/06/2025  21:46:53.725557	-5.129245E-1
03/06/2025  21:46:53.726057	-4.386876E-1
03/06/2025  21:46:53.726557	-4.279428E-1
03/06/2025  21:46:53.727057	-3.957083E-1
03/06/2025  21:46:53.727557	-3.637995E-1
03/06/2025  21:46:53.728057	-3.439379E-1
03/06/2025  21:46:53.728557	-3.104010E-1
03/06/2025  21:46:53.729057	-2.524441E-1
03/06/2025  21:46:53.729557	-2.368153E-1
03/06/2025  21:46:53.730057	-1.912312E-1
03/06/2025  21:46:53.730557	-1.580200E-1
03/06/2025  21:46:53.731057	-1.765792E-1
03/06/2025  21:46:53.731557	-1.622528E-1
03/06/2025  21:46:53.732057	-1.319720E-1
03/06/2025  21:46:53.732557	-1.443448E-1
03/06/2025  21:46:53.733057	-1.521592E-1
03/06/2025  21:46:53.733557	-1.622528E-1
03/06/2025  21:46:53.734057	-1.883008E-1
03/06/2025  21:46:53.734557	-2.172793E-1
03/06/2025  21:46:53.735057	-2.384433E-1
03/06/2025  21:46:53.735557	-2.641657E-1
03/06/2025  21:46:53.736057	-3.130058E-1
03/06/2025  21:46:53.736557	-3.537059E-1
03/06/2025  21:46:53.737057	-4.035227E-1
03/06/2025  21:46:53.737557	-4.331524E-1
03/06/2025  21:46:53.738057	-5.285533E-1
03/06/2025  21:46:53.738557	-5.305069E-1
03/06/2025  21:46:53.739057	-5.679510E-1
03/06/2025  21:46:53.739557	-5.767422E-1
03/06/2025  21:46:53.740057	-5.868358E-1
03/06/2025  21:46:53.740557	-6.434903E-1
03/06/2025  21:46:53.741057	-6.526071E-1
03/06/2025  21:46:53.741557	-6.594447E-1
03/06/2025  21:46:53.742057	-6.522815E-1
03/06/2025  21:46:53.742557	-6.343735E-1
03/06/2025  21:46:53.743057	-6.213495E-1
03/06/2025  21:46:53.743557	-6.298151E-1
03/06/2025  21:46:53.744057	-6.259079E-1
03/06/2025  21:46:53.744557	-5.855334E-1
03/06/2025  21:46:53.745057	-5.686022E-1
03/06/2025  21:46:53.745557	-5.448334E-1
03/06/2025  21:46:53.746057	-4.819925E-1
03/06/2025  21:46:53.746557	-4.354316E-1
03/06/2025  21:46:53.747057	-3.927779E-1
03/06/2025  21:46:53.747557	-3.475195E-1
03/06/2025  21:46:53.748057	-3.550083E-1
03/06/2025  21:46:53.748557	-3.006330E-1
03/06/2025  21:46:53.749057	-2.413737E-1
03/06/2025  21:46:53.749557	-1.775560E-1
03/06/2025  21:46:53.750057	-1.697416E-1
03/06/2025  21:46:53.750557	-1.505312E-1
03/06/2025  21:46:53.751057	-1.261111E-1
03/06/2025  21:46:53.751557	-1.166687E-1
03/06/2025  21:46:53.752057	-1.111335E-1
03/06/2025  21:46:53.752557	-1.446704E-1
03/06/2025  21:46:53.753057	-1.433680E-1
03/06/2025  21:46:53.753557	-1.612760E-1
03/06/2025  21:46:53.754057	-1.791840E-1
03/06/2025  21:46:53.754557	-2.107673E-1
03/06/2025  21:46:53.755057	-2.403969E-1
03/06/2025  21:46:53.755557	-2.749106E-1
03/06/2025  21:46:53.756057	-3.237506E-1
03/06/2025  21:46:53.756557	-3.602179E-1
03/06/2025  21:46:53.757057	-3.807307E-1
03/06/2025  21:46:53.757557	-4.269660E-1
03/06/2025  21:46:53.758057	-4.578980E-1
03/06/2025  21:46:53.758557	-4.917605E-1
03/06/2025  21:46:53.759057	-5.236693E-1
03/06/2025  21:46:53.759557	-5.829286E-1
03/06/2025  21:46:53.760057	-6.177679E-1
03/06/2025  21:46:53.760557	-6.421879E-1
03/06/2025  21:46:53.761057	-6.438159E-1
03/06/2025  21:46:53.761557	-6.242799E-1
03/06/2025  21:46:53.762057	-6.666079E-1
03/06/2025  21:46:53.762557	-6.542351E-1
03/06/2025  21:46:53.763057	-6.343735E-1
03/06/2025  21:46:53.763557	-6.294895E-1
03/06/2025  21:46:53.764057	-6.073486E-1
03/06/2025  21:46:53.764557	-5.773934E-1
03/06/2025  21:46:53.765057	-5.526478E-1
03/06/2025  21:46:53.765557	-5.305069E-1
03/06/2025  21:46:53.766057	-4.631076E-1
03/06/2025  21:46:53.766557	-4.702708E-1
03/06/2025  21:46:53.767057	-4.155700E-1
03/06/2025  21:46:53.767557	-3.690091E-1
03/06/2025  21:46:53.768057	-3.328674E-1
03/06/2025  21:46:53.768557	-2.700266E-1
03/06/2025  21:46:53.769057	-2.618865E-1
03/06/2025  21:46:53.769557	-2.091393E-1
03/06/2025  21:46:53.770057	-1.814632E-1
03/06/2025  21:46:53.770557	-1.658344E-1
03/06/2025  21:46:53.771057	-1.684392E-1
03/06/2025  21:46:53.771557	-1.293672E-1
03/06/2025  21:46:53.772057	-1.176455E-1
03/06/2025  21:46:53.772557	-1.296928E-1
03/06/2025  21:46:53.773057	-1.563920E-1
03/06/2025  21:46:53.773557	-1.690904E-1
03/06/2025  21:46:53.774057	-1.892776E-1
03/06/2025  21:46:53.774557	-2.241169E-1
03/06/2025  21:46:53.775057	-2.521185E-1
03/06/2025  21:46:53.775557	-2.534209E-1
03/06/2025  21:46:53.776057	-3.081218E-1
03/06/2025  21:46:53.776557	-3.546827E-1
03/06/2025  21:46:53.777057	-3.878939E-1
03/06/2025  21:46:53.777557	-4.471532E-1
03/06/2025  21:46:53.778057	-4.416180E-1
03/06/2025  21:46:53.778557	-4.956677E-1
03/06/2025  21:46:53.779057	-5.402749E-1
03/06/2025  21:46:53.779557	-5.637182E-1
03/06/2025  21:46:53.780057	-6.060462E-1
03/06/2025  21:46:53.780557	-6.246055E-1
03/06/2025  21:46:53.781057	-6.643287E-1
03/06/2025  21:46:53.781557	-6.740967E-1
03/06/2025  21:46:53.782057	-6.877720E-1
03/06/2025  21:46:53.782557	-6.698639E-1
03/06/2025  21:46:53.783057	-6.418623E-1
03/06/2025  21:46:53.783557	-6.522815E-1
03/06/2025  21:46:53.784057	-6.379551E-1
03/06/2025  21:46:53.784557	-6.018134E-1
03/06/2025  21:46:53.785057	-5.845566E-1
03/06/2025  21:46:53.785557	-5.135757E-1
03/06/2025  21:46:53.786057	-4.673404E-1
03/06/2025  21:46:53.786557	-4.240356E-1
03/06/2025  21:46:53.787057	-3.908243E-1
03/06/2025  21:46:53.787557	-3.458915E-1
03/06/2025  21:46:53.788057	-3.517523E-1
03/06/2025  21:46:53.788557	-2.885858E-1
03/06/2025  21:46:53.789057	-2.511417E-1
03/06/2025  21:46:53.789557	-2.192329E-1
03/06/2025  21:46:53.790057	-1.661600E-1
03/06/2025  21:46:53.790557	-1.684392E-1
03/06/2025  21:46:53.791057	-1.456472E-1
03/06/2025  21:46:53.791557	-1.319720E-1
03/06/2025  21:46:53.792057	-1.209015E-1
03/06/2025  21:46:53.792557	-1.274135E-1
03/06/2025  21:46:53.793057	-1.231807E-1
03/06/2025  21:46:53.793557	-1.423912E-1
03/06/2025  21:46:53.794057	-1.694160E-1
03/06/2025  21:46:53.794557	-1.830912E-1
03/06/2025  21:46:53.795057	-2.716546E-1
03/06/2025  21:46:53.795557	-2.990050E-1
03/06/2025  21:46:53.796057	-3.550083E-1
03/06/2025  21:46:53.796557	-3.791027E-1
03/06/2025  21:46:53.797057	-3.869171E-1
03/06/2025  21:46:53.797557	-4.575724E-1
03/06/2025  21:46:53.798057	-5.054357E-1
03/06/2025  21:46:53.798557	-5.298557E-1
03/06/2025  21:46:53.799057	-5.666486E-1
03/06/2025  21:46:53.799557	-5.783702E-1
03/06/2025  21:46:53.800057	-6.001854E-1
03/06/2025  21:46:53.800557	-6.434903E-1
03/06/2025  21:46:53.801057	-6.539095E-1
03/06/2025  21:46:53.801557	-6.666079E-1
03/06/2025  21:46:53.802057	-6.819112E-1
03/06/2025  21:46:53.802557	-6.913536E-1
03/06/2025  21:46:53.803057	-6.780039E-1
03/06/2025  21:46:53.803557	-6.519559E-1
03/06/2025  21:46:53.804057	-6.210239E-1
03/06/2025  21:46:53.804557	-6.053950E-1
03/06/2025  21:46:53.805057	-5.926966E-1
03/06/2025  21:46:53.805557	-5.256229E-1
03/06/2025  21:46:53.806057	-4.930629E-1
03/06/2025  21:46:53.806557	-4.263148E-1
03/06/2025  21:46:53.807057	-4.149188E-1
03/06/2025  21:46:53.807557	-3.540315E-1
03/06/2025  21:46:53.808057	-3.426355E-1
03/06/2025  21:46:53.808557	-3.003074E-1
03/06/2025  21:46:53.809057	-2.478857E-1
03/06/2025  21:46:53.809557	-2.491881E-1
03/06/2025  21:46:53.810057	-2.136977E-1
03/06/2025  21:46:53.810557	-1.821144E-1
03/06/2025  21:46:53.811057	-1.306696E-1
03/06/2025  21:46:53.811557	-1.417400E-1
03/06/2025  21:46:53.812057	-1.674624E-1
03/06/2025  21:46:53.812557	-1.593224E-1
03/06/2025  21:46:53.813057	-1.782072E-1
03/06/2025  21:46:53.813557	-1.287160E-1
03/06/2025  21:46:53.814057	-2.156513E-1
03/06/2025  21:46:53.814557	-2.469089E-1
03/06/2025  21:46:53.815057	-2.677474E-1
03/06/2025  21:46:53.815557	-3.110522E-1
03/06/2025  21:46:53.816057	-3.637995E-1
03/06/2025  21:46:53.816557	-4.240356E-1
03/06/2025  21:46:53.817057	-4.517116E-1
