waveform	Ch0	
t0	03/06/2025  21:45:37.685769	
delta t	0.000500	

time[0]	Ch0
03/06/2025  21:45:37.685769	-1.329488E-1
03/06/2025  21:45:37.686269	-1.967664E-1
03/06/2025  21:45:37.686769	-2.570025E-1
03/06/2025  21:45:37.687269	-2.247681E-1
03/06/2025  21:45:37.687769	-3.397051E-1
03/06/2025  21:45:37.688269	-4.194772E-1
03/06/2025  21:45:37.688769	-4.611540E-1
03/06/2025  21:45:37.689269	-5.220413E-1
03/06/2025  21:45:37.689769	-5.493918E-1
03/06/2025  21:45:37.690269	-6.109302E-1
03/06/2025  21:45:37.690769	-6.467463E-1
03/06/2025  21:45:37.691269	-6.890744E-1
03/06/2025  21:45:37.691769	-7.216344E-1
03/06/2025  21:45:37.692269	-8.310362E-1
03/06/2025  21:45:37.692769	-8.053137E-1
03/06/2025  21:45:37.693269	-7.766609E-1
03/06/2025  21:45:37.693769	-7.447520E-1
03/06/2025  21:45:37.694269	-7.388912E-1
03/06/2025  21:45:37.694769	-6.825624E-1
03/06/2025  21:45:37.695269	-6.841904E-1
03/06/2025  21:45:37.695769	-6.473975E-1
03/06/2025  21:45:37.696269	-5.572062E-1
03/06/2025  21:45:37.696769	-4.409668E-1
03/06/2025  21:45:37.697269	-3.989643E-1
03/06/2025  21:45:37.697769	-3.439379E-1
03/06/2025  21:45:37.698269	-2.996562E-1
03/06/2025  21:45:37.698769	-2.338849E-1
03/06/2025  21:45:37.699269	-1.658344E-1
03/06/2025  21:45:37.699769	-1.759280E-1
03/06/2025  21:45:37.700269	-1.169943E-1
03/06/2025  21:45:37.700769	-3.885022E-2
03/06/2025  21:45:37.701269	-1.866299E-2
03/06/2025  21:45:37.701769	4.906191E-2
03/06/2025  21:45:37.702269	5.362031E-2
03/06/2025  21:45:37.702769	7.445874E-2
03/06/2025  21:45:37.703269	4.613150E-2
03/06/2025  21:45:37.703769	8.748276E-2
03/06/2025  21:45:37.704269	3.929389E-2
03/06/2025  21:45:37.704769	2.826639E-3
03/06/2025  21:45:37.705269	-2.289580E-2
03/06/2025  21:45:37.705769	-7.727108E-2
03/06/2025  21:45:37.706269	-1.420656E-1
03/06/2025  21:45:37.706769	-2.602585E-1
03/06/2025  21:45:37.707269	-3.263554E-1
03/06/2025  21:45:37.707769	-3.716139E-1
03/06/2025  21:45:37.708269	-4.341292E-1
03/06/2025  21:45:37.708769	-4.692940E-1
03/06/2025  21:45:37.709269	-5.594854E-1
03/06/2025  21:45:37.709769	-6.145119E-1
03/06/2025  21:45:37.710269	-6.408855E-1
03/06/2025  21:45:37.710769	-6.903768E-1
03/06/2025  21:45:37.711269	-6.897256E-1
03/06/2025  21:45:37.711769	-7.336816E-1
03/06/2025  21:45:37.712269	-7.584273E-1
03/06/2025  21:45:37.712769	-7.594041E-1
03/06/2025  21:45:37.713269	-7.359608E-1
03/06/2025  21:45:37.713769	-8.056393E-1
03/06/2025  21:45:37.714269	-7.649393E-1
03/06/2025  21:45:37.714769	-7.209832E-1
03/06/2025  21:45:37.715269	-6.949352E-1
03/06/2025  21:45:37.715769	-5.663230E-1
03/06/2025  21:45:37.716269	-5.796726E-1
03/06/2025  21:45:37.716769	-4.933885E-1
03/06/2025  21:45:37.717269	-4.321756E-1
03/06/2025  21:45:37.717769	-3.540315E-1
03/06/2025  21:45:37.718269	-2.560257E-1
03/06/2025  21:45:37.718769	-2.185817E-1
03/06/2025  21:45:37.719269	-1.524848E-1
03/06/2025  21:45:37.719769	-1.023423E-1
03/06/2025  21:45:37.720269	-4.308303E-2
03/06/2025  21:45:37.720769	-8.182948E-2
03/06/2025  21:45:37.721269	-1.508139E-2
03/06/2025  21:45:37.721769	9.338649E-3
03/06/2025  21:45:37.722269	7.901715E-2
03/06/2025  21:45:37.722769	1.646501E-1
03/06/2025  21:45:37.723269	7.478434E-2
03/06/2025  21:45:37.723769	4.515470E-2
03/06/2025  21:45:37.724269	2.626987E-2
03/06/2025  21:45:37.724769	-4.010971E-3
03/06/2025  21:45:37.725269	1.975786E-2
03/06/2025  21:45:37.725769	-5.382784E-2
03/06/2025  21:45:37.726269	-1.241575E-1
03/06/2025  21:45:37.726769	-1.931848E-1
03/06/2025  21:45:37.727269	-2.351873E-1
03/06/2025  21:45:37.727769	-2.915162E-1
03/06/2025  21:45:37.728269	-4.224076E-1
03/06/2025  21:45:37.728769	-4.761317E-1
03/06/2025  21:45:37.729269	-5.168317E-1
03/06/2025  21:45:37.729769	-6.148375E-1
03/06/2025  21:45:37.730269	-6.102790E-1
03/06/2025  21:45:37.730769	-6.946096E-1
03/06/2025  21:45:37.731269	-7.297744E-1
03/06/2025  21:45:37.731769	-7.642881E-1
03/06/2025  21:45:37.732269	-7.134944E-1
03/06/2025  21:45:37.732769	-7.551713E-1
03/06/2025  21:45:37.733269	-7.460544E-1
03/06/2025  21:45:37.733769	-7.421472E-1
03/06/2025  21:45:37.734269	-7.206576E-1
03/06/2025  21:45:37.734769	-6.894000E-1
03/06/2025  21:45:37.735269	-7.323792E-1
03/06/2025  21:45:37.735769	-6.734455E-1
03/06/2025  21:45:37.736269	-5.679510E-1
03/06/2025  21:45:37.736769	-5.217157E-1
03/06/2025  21:45:37.737269	-4.325012E-1
03/06/2025  21:45:37.737769	-3.914755E-1
03/06/2025  21:45:37.738269	-3.348210E-1
03/06/2025  21:45:37.738769	-2.605841E-1
03/06/2025  21:45:37.739269	-2.094649E-1
03/06/2025  21:45:37.739769	-1.059239E-1
03/06/2025  21:45:37.740269	-6.489826E-2
03/06/2025  21:45:37.740769	-2.940781E-2
03/06/2025  21:45:37.741269	2.561867E-2
03/06/2025  21:45:37.741769	4.841071E-2
03/06/2025  21:45:37.742269	-4.293654E-4
03/06/2025  21:45:37.742769	2.333947E-2
03/06/2025  21:45:37.743269	1.096665E-2
03/06/2025  21:45:37.743769	7.710646E-3
03/06/2025  21:45:37.744269	4.092189E-2
03/06/2025  21:45:37.744769	-5.936305E-2
03/06/2025  21:45:37.745269	-8.182948E-2
03/06/2025  21:45:37.745769	-1.186223E-1
03/06/2025  21:45:37.746269	-1.798352E-1
03/06/2025  21:45:37.746769	-1.912312E-1
03/06/2025  21:45:37.747269	-2.651425E-1
03/06/2025  21:45:37.747769	-3.299370E-1
03/06/2025  21:45:37.748269	-3.904987E-1
03/06/2025  21:45:37.748769	-4.491068E-1
03/06/2025  21:45:37.749269	-5.721838E-1
03/06/2025  21:45:37.749769	-6.216751E-1
03/06/2025  21:45:37.750269	-6.685615E-1
03/06/2025  21:45:37.750769	-6.786551E-1
03/06/2025  21:45:37.751269	-6.548863E-1
03/06/2025  21:45:37.751769	-7.271696E-1
03/06/2025  21:45:37.752269	-7.808937E-1
03/06/2025  21:45:37.752769	-7.834985E-1
03/06/2025  21:45:37.753269	-7.760097E-1
03/06/2025  21:45:37.753769	-7.086104E-1
03/06/2025  21:45:37.754269	-6.959120E-1
03/06/2025  21:45:37.754769	-6.760503E-1
03/06/2025  21:45:37.755269	-6.467463E-1
03/06/2025  21:45:37.755769	-6.083254E-1
03/06/2025  21:45:37.756269	-5.220413E-1
03/06/2025  21:45:37.756769	-5.350653E-1
03/06/2025  21:45:37.757269	-4.751549E-1
03/06/2025  21:45:37.757769	-3.634739E-1
03/06/2025  21:45:37.758269	-3.361235E-1
03/06/2025  21:45:37.758769	-2.755618E-1
03/06/2025  21:45:37.759269	-1.941616E-1
03/06/2025  21:45:37.759769	-1.218783E-1
03/06/2025  21:45:37.760269	-1.010399E-1
03/06/2025  21:45:37.760769	-6.615774E-3
03/06/2025  21:45:37.761269	1.226905E-2
03/06/2025  21:45:37.761769	2.529307E-2
03/06/2025  21:45:37.762269	7.380754E-2
03/06/2025  21:45:37.762769	6.696993E-2
03/06/2025  21:45:37.763269	4.971311E-2
03/06/2025  21:45:37.763769	-4.764143E-2
03/06/2025  21:45:37.764269	-4.568783E-2
03/06/2025  21:45:37.764769	-5.415344E-2
03/06/2025  21:45:37.765269	-1.124359E-1
03/06/2025  21:45:37.765769	-1.104823E-1
03/06/2025  21:45:37.766269	-1.996969E-1
03/06/2025  21:45:37.766769	-2.407225E-1
03/06/2025  21:45:37.767269	-3.068194E-1
03/06/2025  21:45:37.767769	-3.006330E-1
03/06/2025  21:45:37.768269	-4.015691E-1
03/06/2025  21:45:37.768769	-4.572468E-1
03/06/2025  21:45:37.769269	-5.292045E-1
03/06/2025  21:45:37.769769	-5.959526E-1
03/06/2025  21:45:37.770269	-6.307919E-1
03/06/2025  21:45:37.770769	-7.379144E-1
03/06/2025  21:45:37.771269	-7.668929E-1
03/06/2025  21:45:37.771769	-7.642881E-1
03/06/2025  21:45:37.772269	-8.069417E-1
03/06/2025  21:45:37.772769	-7.535433E-1
03/06/2025  21:45:37.773269	-8.030345E-1
03/06/2025  21:45:37.773769	-7.763353E-1
03/06/2025  21:45:37.774269	-7.502873E-1
03/06/2025  21:45:37.774769	-7.050288E-1
03/06/2025  21:45:37.775269	-6.496767E-1
03/06/2025  21:45:37.775769	-6.161399E-1
03/06/2025  21:45:37.776269	-5.536246E-1
03/06/2025  21:45:37.776769	-4.943653E-1
03/06/2025  21:45:37.777269	-4.396644E-1
03/06/2025  21:45:37.777769	-4.448740E-1
03/06/2025  21:45:37.778269	-3.491475E-1
03/06/2025  21:45:37.778769	-3.019354E-1
03/06/2025  21:45:37.779269	-2.117441E-1
03/06/2025  21:45:37.779769	-1.065751E-1
03/06/2025  21:45:37.780269	-1.186223E-1
03/06/2025  21:45:37.780769	-8.248068E-2
03/06/2025  21:45:37.781269	-5.252544E-2
03/06/2025  21:45:37.781769	-1.019738E-2
03/06/2025  21:45:37.782269	4.320110E-2
03/06/2025  21:45:37.782769	2.268827E-2
03/06/2025  21:45:37.783269	5.105843E-3
03/06/2025  21:45:37.783769	3.803441E-3
03/06/2025  21:45:37.784269	-1.052298E-2
03/06/2025  21:45:37.784769	-1.342512E-1
03/06/2025  21:45:37.785269	-1.111335E-1
03/06/2025  21:45:37.785769	-1.414144E-1
03/06/2025  21:45:37.786269	-1.856960E-1
03/06/2025  21:45:37.786769	-2.654681E-1
03/06/2025  21:45:37.787269	-3.214714E-1
03/06/2025  21:45:37.787769	-3.611947E-1
03/06/2025  21:45:37.788269	-4.256636E-1
03/06/2025  21:45:37.788769	-4.699452E-1
03/06/2025  21:45:37.789269	-4.722244E-1
03/06/2025  21:45:37.789769	-5.715326E-1
03/06/2025  21:45:37.790269	-6.011622E-1
03/06/2025  21:45:37.790769	-6.360015E-1
03/06/2025  21:45:37.791269	-6.884232E-1
03/06/2025  21:45:37.791769	-6.942840E-1
03/06/2025  21:45:37.792269	-7.799169E-1
03/06/2025  21:45:37.792769	-7.620089E-1
03/06/2025  21:45:37.793269	-7.506129E-1
03/06/2025  21:45:37.793769	-7.613577E-1
03/06/2025  21:45:37.794269	-7.063312E-1
03/06/2025  21:45:37.794769	-6.981912E-1
03/06/2025  21:45:37.795269	-6.451183E-1
03/06/2025  21:45:37.795769	-6.197215E-1
03/06/2025  21:45:37.796269	-5.073893E-1
03/06/2025  21:45:37.796769	-4.712476E-1
03/06/2025  21:45:37.797269	-4.113372E-1
03/06/2025  21:45:37.797769	-3.709627E-1
03/06/2025  21:45:37.798269	-3.019354E-1
03/06/2025  21:45:37.798769	-2.498393E-1
03/06/2025  21:45:37.799269	-2.335593E-1
03/06/2025  21:45:37.799769	-1.690904E-1
03/06/2025  21:45:37.800269	-9.876071E-2
03/06/2025  21:45:37.800769	-7.694548E-2
03/06/2025  21:45:37.801269	1.422266E-2
03/06/2025  21:45:37.801769	-5.638973E-3
03/06/2025  21:45:37.802269	1.519946E-2
03/06/2025  21:45:37.802769	2.268827E-2
03/06/2025  21:45:37.803269	2.431627E-2
03/06/2025  21:45:37.803769	3.506109E-2
03/06/2025  21:45:37.804269	1.422266E-2
03/06/2025  21:45:37.804769	-1.312778E-2
03/06/2025  21:45:37.805269	-4.275743E-2
03/06/2025  21:45:37.805769	-7.824788E-2
03/06/2025  21:45:37.806269	-1.931848E-1
03/06/2025  21:45:37.806769	-2.416993E-1
03/06/2025  21:45:37.807269	-2.921674E-1
03/06/2025  21:45:37.807769	-3.357979E-1
03/06/2025  21:45:37.808269	-3.439379E-1
03/06/2025  21:45:37.808769	-4.549676E-1
03/06/2025  21:45:37.809269	-5.269253E-1
03/06/2025  21:45:37.809769	-5.624158E-1
03/06/2025  21:45:37.810269	-6.200471E-1
03/06/2025  21:45:37.810769	-6.246055E-1
03/06/2025  21:45:37.811269	-6.561887E-1
03/06/2025  21:45:37.811769	-6.900512E-1
03/06/2025  21:45:37.812269	-7.379144E-1
03/06/2025  21:45:37.812769	-7.375888E-1
03/06/2025  21:45:37.813269	-8.193146E-1
03/06/2025  21:45:37.813769	-7.616833E-1
03/06/2025  21:45:37.814269	-7.369376E-1
03/06/2025  21:45:37.814769	-6.705151E-1
03/06/2025  21:45:37.815269	-6.659567E-1
03/06/2025  21:45:37.815769	-6.294895E-1
03/06/2025  21:45:37.816269	-5.477638E-1
03/06/2025  21:45:37.816769	-4.907837E-1
03/06/2025  21:45:37.817269	-4.217564E-1
03/06/2025  21:45:37.817769	-3.169130E-1
03/06/2025  21:45:37.818269	-2.840274E-1
03/06/2025  21:45:37.818769	-2.254193E-1
03/06/2025  21:45:37.819269	-1.700672E-1
03/06/2025  21:45:37.819769	-1.156919E-1
03/06/2025  21:45:37.820269	-5.643265E-2
03/06/2025  21:45:37.820769	-6.587506E-2
03/06/2025  21:45:37.821269	-2.875661E-2
03/06/2025  21:45:37.821769	1.064105E-2
03/06/2025  21:45:37.822269	2.626987E-2
03/06/2025  21:45:37.822769	7.120274E-2
03/06/2025  21:45:37.823269	2.659547E-2
03/06/2025  21:45:37.823769	1.682746E-2
03/06/2025  21:45:37.824269	-7.549658E-4
03/06/2025  21:45:37.824769	3.180508E-2
03/06/2025  21:45:37.825269	-2.777980E-2
03/06/2025  21:45:37.825769	-7.531747E-2
03/06/2025  21:45:37.826269	-1.544384E-1
03/06/2025  21:45:37.826769	-2.312801E-1
03/06/2025  21:45:37.827269	-2.690498E-1
03/06/2025  21:45:37.827769	-4.025459E-1
03/06/2025  21:45:37.828269	-4.435716E-1
03/06/2025  21:45:37.828769	-4.741781E-1
03/06/2025  21:45:37.829269	-5.441822E-1
03/06/2025  21:45:37.829769	-6.021390E-1
03/06/2025  21:45:37.830269	-6.395831E-1
03/06/2025  21:45:37.830769	-6.841904E-1
03/06/2025  21:45:37.831269	-7.248904E-1
03/06/2025  21:45:37.831769	-7.366120E-1
03/06/2025  21:45:37.832269	-7.310768E-1
03/06/2025  21:45:37.832769	-7.512641E-1
03/06/2025  21:45:37.833269	-7.274952E-1
03/06/2025  21:45:37.833769	-7.261928E-1
03/06/2025  21:45:37.834269	-7.112152E-1
03/06/2025  21:45:37.834769	-7.600553E-1
03/06/2025  21:45:37.835269	-7.060056E-1
03/06/2025  21:45:37.835769	-6.454439E-1
03/06/2025  21:45:37.836269	-5.672998E-1
03/06/2025  21:45:37.836769	-4.246868E-1
03/06/2025  21:45:37.837269	-4.165468E-1
03/06/2025  21:45:37.837769	-3.631483E-1
03/06/2025  21:45:37.838269	-3.048658E-1
03/06/2025  21:45:37.838769	-2.570025E-1
03/06/2025  21:45:37.839269	-1.303440E-1
03/06/2025  21:45:37.839769	-9.062070E-2
03/06/2025  21:45:37.840269	-5.057184E-2
03/06/2025  21:45:37.840769	-1.801179E-2
03/06/2025  21:45:37.841269	1.878106E-2
03/06/2025  21:45:37.841769	-2.419820E-2
03/06/2025  21:45:37.842269	3.082828E-2
03/06/2025  21:45:37.842769	4.222430E-2
03/06/2025  21:45:37.843269	5.524832E-2
03/06/2025  21:45:37.843769	9.664249E-3
03/06/2025  21:45:37.844269	3.803441E-3
03/06/2025  21:45:37.844769	-2.517500E-2
03/06/2025  21:45:37.845269	-6.489826E-2
03/06/2025  21:45:37.845769	-9.583030E-2
03/06/2025  21:45:37.846269	-1.069007E-1
03/06/2025  21:45:37.846769	-1.961152E-1
03/06/2025  21:45:37.847269	-2.576537E-1
03/06/2025  21:45:37.847769	-3.403563E-1
03/06/2025  21:45:37.848269	-3.856147E-1
03/06/2025  21:45:37.848769	-4.285940E-1
03/06/2025  21:45:37.849269	-5.637182E-1
03/06/2025  21:45:37.849769	-6.060462E-1
03/06/2025  21:45:37.850269	-6.099534E-1
03/06/2025  21:45:37.850769	-6.959120E-1
03/06/2025  21:45:37.851269	-6.835392E-1
03/06/2025  21:45:37.851769	-7.359608E-1
03/06/2025  21:45:37.852269	-7.502873E-1
03/06/2025  21:45:37.852769	-7.567993E-1
03/06/2025  21:45:37.853269	-6.913536E-1
03/06/2025  21:45:37.853769	-7.037264E-1
03/06/2025  21:45:37.854269	-6.832136E-1
03/06/2025  21:45:37.854769	-6.513047E-1
03/06/2025  21:45:37.855269	-6.190703E-1
03/06/2025  21:45:37.855769	-5.575318E-1
03/06/2025  21:45:37.856269	-5.650206E-1
03/06/2025  21:45:37.856769	-4.718988E-1
03/06/2025  21:45:37.857269	-4.093836E-1
03/06/2025  21:45:37.857769	-3.478451E-1
03/06/2025  21:45:37.858269	-2.638401E-1
03/06/2025  21:45:37.858769	-2.205353E-1
03/06/2025  21:45:37.859269	-1.453216E-1
03/06/2025  21:45:37.859769	-9.420230E-2
03/06/2025  21:45:37.860269	-4.145502E-2
03/06/2025  21:45:37.860769	4.157310E-2
03/06/2025  21:45:37.861269	7.087714E-2
03/06/2025  21:45:37.861769	9.366917E-2
03/06/2025  21:45:37.862269	1.252524E-1
03/06/2025  21:45:37.862769	1.395788E-1
03/06/2025  21:45:37.863269	6.306273E-2
03/06/2025  21:45:37.863769	4.352670E-2
03/06/2025  21:45:37.864269	4.320110E-2
03/06/2025  21:45:37.864769	9.338649E-3
03/06/2025  21:45:37.865269	5.915552E-2
03/06/2025  21:45:37.865769	-6.392146E-2
03/06/2025  21:45:37.866269	-1.098311E-1
03/06/2025  21:45:37.866769	-1.596480E-1
03/06/2025  21:45:37.867269	-2.472345E-1
03/06/2025  21:45:37.867769	-2.563513E-1
03/06/2025  21:45:37.868269	-3.263554E-1
03/06/2025  21:45:37.868769	-3.885451E-1
03/06/2025  21:45:37.869269	-4.530140E-1
03/06/2025  21:45:37.869769	-5.279021E-1
03/06/2025  21:45:37.870269	-6.545607E-1
03/06/2025  21:45:37.870769	-6.705151E-1
03/06/2025  21:45:37.871269	-6.809344E-1
03/06/2025  21:45:37.871769	-6.740967E-1
03/06/2025  21:45:37.872269	-6.249311E-1
03/06/2025  21:45:37.872769	-7.418216E-1
03/06/2025  21:45:37.873269	-7.209832E-1
03/06/2025  21:45:37.873769	-7.092616E-1
03/06/2025  21:45:37.874269	-6.949352E-1
03/06/2025  21:45:37.874769	-6.099534E-1
03/06/2025  21:45:37.875269	-5.923710E-1
03/06/2025  21:45:37.875769	-5.607878E-1
03/06/2025  21:45:37.876269	-5.015285E-1
03/06/2025  21:45:37.876769	-4.217564E-1
03/06/2025  21:45:37.877269	-3.533803E-1
03/06/2025  21:45:37.877769	-3.543571E-1
03/06/2025  21:45:37.878269	-2.879346E-1
03/06/2025  21:45:37.878769	-2.049065E-1
03/06/2025  21:45:37.879269	-1.537872E-1
03/06/2025  21:45:37.879769	-6.489826E-2
03/06/2025  21:45:37.880269	-3.266381E-2
03/06/2025  21:45:37.880769	1.096665E-2
03/06/2025  21:45:37.881269	5.199231E-2
03/06/2025  21:45:37.881769	1.272060E-1
03/06/2025  21:45:37.882269	1.386020E-1
03/06/2025  21:45:37.882769	1.363228E-1
03/06/2025  21:45:37.883269	1.278572E-1
03/06/2025  21:45:37.883769	1.177636E-1
03/06/2025  21:45:37.884269	9.236677E-2
03/06/2025  21:45:37.884769	-1.247658E-2
03/06/2025  21:45:37.885269	-3.364061E-2
03/06/2025  21:45:37.885769	-3.657102E-2
03/06/2025  21:45:37.886269	-1.303440E-1
03/06/2025  21:45:37.886769	-1.573688E-1
03/06/2025  21:45:37.887269	-2.390945E-1
03/06/2025  21:45:37.887769	-3.152850E-1
03/06/2025  21:45:37.888269	-3.738931E-1
03/06/2025  21:45:37.888769	-4.285940E-1
03/06/2025  21:45:37.889269	-4.653868E-1
03/06/2025  21:45:37.889769	-5.269253E-1
03/06/2025  21:45:37.890269	-5.523222E-1
03/06/2025  21:45:37.890769	-6.005110E-1
03/06/2025  21:45:37.891269	-6.298151E-1
03/06/2025  21:45:37.891769	-7.060056E-1
03/06/2025  21:45:37.892269	-7.157736E-1
03/06/2025  21:45:37.892769	-7.112152E-1
03/06/2025  21:45:37.893269	-6.936328E-1
03/06/2025  21:45:37.893769	-6.200471E-1
03/06/2025  21:45:37.894269	-6.802831E-1
03/06/2025  21:45:37.894769	-6.242799E-1
03/06/2025  21:45:37.895269	-5.754398E-1
03/06/2025  21:45:37.895769	-5.321349E-1
03/06/2025  21:45:37.896269	-4.194772E-1
03/06/2025  21:45:37.896769	-3.517523E-1
03/06/2025  21:45:37.897269	-2.846786E-1
03/06/2025  21:45:37.897769	-2.358385E-1
03/06/2025  21:45:37.898269	-1.892776E-1
03/06/2025  21:45:37.898769	-2.039297E-1
03/06/2025  21:45:37.899269	-1.069007E-1
03/06/2025  21:45:37.899769	-4.471103E-2
03/06/2025  21:45:37.900269	2.236267E-2
03/06/2025  21:45:37.900769	1.320900E-1
03/06/2025  21:45:37.901269	1.050652E-1
03/06/2025  21:45:37.901769	1.236244E-1
03/06/2025  21:45:37.902269	1.711621E-1
03/06/2025  21:45:37.902769	1.643245E-1
03/06/2025  21:45:37.903269	2.099085E-1
03/06/2025  21:45:37.903769	1.838605E-1
03/06/2025  21:45:37.904269	1.571613E-1
03/06/2025  21:45:37.904769	1.145076E-1
03/06/2025  21:45:37.905269	9.790198E-2
03/06/2025  21:45:37.905769	6.176032E-2
03/06/2025  21:45:37.906269	-8.248068E-2
03/06/2025  21:45:37.906769	-1.381584E-1
03/06/2025  21:45:37.907269	-1.557408E-1
03/06/2025  21:45:37.907769	-2.514673E-1
03/06/2025  21:45:37.908269	-2.869578E-1
03/06/2025  21:45:37.908769	-3.559851E-1
03/06/2025  21:45:37.909269	-4.077556E-1
03/06/2025  21:45:37.909769	-4.800389E-1
03/06/2025  21:45:37.910269	-4.481300E-1
03/06/2025  21:45:37.910769	-5.262741E-1
03/06/2025  21:45:37.911269	-5.816262E-1
03/06/2025  21:45:37.911769	-6.027902E-1
03/06/2025  21:45:37.912269	-6.249311E-1
03/06/2025  21:45:37.912769	-6.278615E-1
03/06/2025  21:45:37.913269	-6.848416E-1
03/06/2025  21:45:37.913769	-6.659567E-1
03/06/2025  21:45:37.914269	-6.145119E-1
03/06/2025  21:45:37.914769	-6.135351E-1
03/06/2025  21:45:37.915269	-5.432054E-1
03/06/2025  21:45:37.915769	-5.207389E-1
03/06/2025  21:45:37.916269	-4.468276E-1
03/06/2025  21:45:37.916769	-3.748699E-1
03/06/2025  21:45:37.917269	-2.439785E-1
03/06/2025  21:45:37.917769	-2.312801E-1
03/06/2025  21:45:37.918269	-1.661600E-1
03/06/2025  21:45:37.918769	-1.150407E-1
03/06/2025  21:45:37.919269	-6.489826E-2
03/06/2025  21:45:37.919769	7.059445E-3
03/06/2025  21:45:37.920269	-2.908221E-2
03/06/2025  21:45:37.920769	3.734029E-2
03/06/2025  21:45:37.921269	8.976197E-2
03/06/2025  21:45:37.921769	9.952998E-2
03/06/2025  21:45:37.922269	1.653013E-1
03/06/2025  21:45:37.922769	1.154844E-1
03/06/2025  21:45:37.923269	9.627397E-2
03/06/2025  21:45:37.923769	6.827233E-2
03/06/2025  21:45:37.924269	6.045792E-2
03/06/2025  21:45:37.924769	6.501633E-2
03/06/2025  21:45:37.925269	2.399067E-2
03/06/2025  21:45:37.925769	-3.233821E-2
03/06/2025  21:45:37.926269	-9.745831E-2
03/06/2025  21:45:37.926769	-1.632296E-1
03/06/2025  21:45:37.927269	-3.045402E-1
03/06/2025  21:45:37.927769	-3.537059E-1
03/06/2025  21:45:37.928269	-3.957083E-1
03/06/2025  21:45:37.928769	-4.465020E-1
03/06/2025  21:45:37.929269	-4.621308E-1
03/06/2025  21:45:37.929769	-5.809750E-1
03/06/2025  21:45:37.930269	-6.402343E-1
03/06/2025  21:45:37.930769	-6.685615E-1
03/06/2025  21:45:37.931269	-7.193552E-1
03/06/2025  21:45:37.931769	-6.946096E-1
03/06/2025  21:45:37.932269	-7.343328E-1
03/06/2025  21:45:37.932769	-7.431240E-1
03/06/2025  21:45:37.933269	-7.427984E-1
03/06/2025  21:45:37.933769	-7.274952E-1
03/06/2025  21:45:37.934269	-8.222450E-1
03/06/2025  21:45:37.934769	-7.330304E-1
03/06/2025  21:45:37.935269	-7.050288E-1
03/06/2025  21:45:37.935769	-6.242799E-1
03/06/2025  21:45:37.936269	-5.959526E-1
03/06/2025  21:45:37.936769	-5.168317E-1
03/06/2025  21:45:37.937269	-4.523628E-1
03/06/2025  21:45:37.937769	-3.791027E-1
03/06/2025  21:45:37.938269	-3.260298E-1
03/06/2025  21:45:37.938769	-2.169537E-1
03/06/2025  21:45:37.939269	-1.739744E-1
03/06/2025  21:45:37.939769	-1.134127E-1
03/06/2025  21:45:37.940269	-7.499187E-2
03/06/2025  21:45:37.940769	-2.973341E-2
03/06/2025  21:45:37.941269	4.454642E-3
03/06/2025  21:45:37.941769	-2.322140E-2
03/06/2025  21:45:37.942269	1.552506E-2
03/06/2025  21:45:37.942769	4.417790E-2
03/06/2025  21:45:37.943269	8.730365E-4
03/06/2025  21:45:37.943769	2.399067E-2
03/06/2025  21:45:37.944269	-2.387260E-2
03/06/2025  21:45:37.944769	-4.861824E-2
03/06/2025  21:45:37.945269	-6.489826E-2
03/06/2025  21:45:37.945769	-4.699023E-2
03/06/2025  21:45:37.946269	-1.583456E-1
03/06/2025  21:45:37.946769	-2.228145E-1
03/06/2025  21:45:37.947269	-2.729570E-1
03/06/2025  21:45:37.947769	-3.406819E-1
03/06/2025  21:45:37.948269	-3.849635E-1
03/06/2025  21:45:37.948769	-5.028309E-1
03/06/2025  21:45:37.949269	-5.412517E-1
03/06/2025  21:45:37.949769	-5.832542E-1
03/06/2025  21:45:37.950269	-6.379551E-1
03/06/2025  21:45:37.950769	-6.346991E-1
03/06/2025  21:45:37.951269	-7.160992E-1
03/06/2025  21:45:37.951769	-7.444264E-1
03/06/2025  21:45:37.952269	-7.776377E-1
03/06/2025  21:45:37.952769	-7.782889E-1
03/06/2025  21:45:37.953269	-7.405192E-1
03/06/2025  21:45:37.953769	-7.144712E-1
03/06/2025  21:45:37.954269	-6.978656E-1
03/06/2025  21:45:37.954769	-6.763759E-1
03/06/2025  21:45:37.955269	-6.402343E-1
03/06/2025  21:45:37.955769	-6.477231E-1
03/06/2025  21:45:37.956269	-5.871614E-1
03/06/2025  21:45:37.956769	-5.135757E-1
03/06/2025  21:45:37.957269	-4.194772E-1
03/06/2025  21:45:37.957769	-3.016098E-1
03/06/2025  21:45:37.958269	-3.214714E-1
03/06/2025  21:45:37.958769	-2.723058E-1
03/06/2025  21:45:37.959269	-1.866728E-1
03/06/2025  21:45:37.959769	-1.329488E-1
03/06/2025  21:45:37.960269	-4.926944E-2
03/06/2025  21:45:37.960769	-2.289580E-2
03/06/2025  21:45:37.961269	1.943226E-2
03/06/2025  21:45:37.961769	3.147948E-2
03/06/2025  21:45:37.962269	7.120274E-2
03/06/2025  21:45:37.962769	-1.084858E-2
03/06/2025  21:45:37.963269	1.650186E-2
03/06/2025  21:45:37.963769	1.198637E-3
03/06/2025  21:45:37.964269	1.161785E-2
03/06/2025  21:45:37.964769	-6.424706E-2
03/06/2025  21:45:37.965269	-6.261906E-2
03/06/2025  21:45:37.965769	-1.121103E-1
03/06/2025  21:45:37.966269	-1.840680E-1
03/06/2025  21:45:37.966769	-2.439785E-1
03/06/2025  21:45:37.967269	-2.394201E-1
03/06/2025  21:45:37.967769	-3.341698E-1
03/06/2025  21:45:37.968269	-3.937547E-1
03/06/2025  21:45:37.968769	-4.530140E-1
03/06/2025  21:45:37.969269	-5.171573E-1
03/06/2025  21:45:37.969769	-5.705558E-1
03/06/2025  21:45:37.970269	-6.770271E-1
03/06/2025  21:45:37.970769	-7.258672E-1
03/06/2025  21:45:37.971269	-7.314024E-1
03/06/2025  21:45:37.971769	-7.906617E-1
03/06/2025  21:45:37.972269	-7.675441E-1
03/06/2025  21:45:37.972769	-8.059649E-1
03/06/2025  21:45:37.973269	-7.747073E-1
03/06/2025  21:45:37.973769	-7.773121E-1
03/06/2025  21:45:37.974269	-6.965632E-1
03/06/2025  21:45:37.974769	-6.783295E-1
03/06/2025  21:45:37.975269	-6.350247E-1
03/06/2025  21:45:37.975769	-5.920454E-1
03/06/2025  21:45:37.976269	-5.370189E-1
03/06/2025  21:45:37.976769	-4.718988E-1
03/06/2025  21:45:37.977269	-4.858997E-1
03/06/2025  21:45:37.977769	-3.960339E-1
03/06/2025  21:45:37.978269	-3.201690E-1
03/06/2025  21:45:37.978769	-2.791434E-1
03/06/2025  21:45:37.979269	-1.843936E-1
03/06/2025  21:45:37.979769	-1.336000E-1
03/06/2025  21:45:37.980269	-9.452790E-2
03/06/2025  21:45:37.980769	-3.559422E-2
03/06/2025  21:45:37.981269	-1.247658E-2
03/06/2025  21:45:37.981769	6.273713E-2
03/06/2025  21:45:37.982269	6.859793E-2
03/06/2025  21:45:37.982769	8.031955E-2
03/06/2025  21:45:37.983269	3.603789E-2
03/06/2025  21:45:37.983769	3.896829E-2
03/06/2025  21:45:37.984269	-7.271267E-2
03/06/2025  21:45:37.984769	-8.280628E-2
03/06/2025  21:45:37.985269	-1.140639E-1
03/06/2025  21:45:37.985769	-1.703928E-1
03/06/2025  21:45:37.986269	-1.690904E-1
03/06/2025  21:45:37.986769	-3.019354E-1
03/06/2025  21:45:37.987269	-3.712883E-1
03/06/2025  21:45:37.987769	-4.432460E-1
03/06/2025  21:45:37.988269	-5.269253E-1
03/06/2025  21:45:37.988769	-5.471126E-1
03/06/2025  21:45:37.989269	-6.376295E-1
03/06/2025  21:45:37.989769	-7.242392E-1
03/06/2025  21:45:37.990269	-7.825217E-1
03/06/2025  21:45:37.990769	-8.482930E-1
03/06/2025  21:45:37.991269	-9.769052E-1
03/06/2025  21:45:37.991769	-9.733236E-1
03/06/2025  21:45:37.992269	-1.010442E+0
03/06/2025  21:45:37.992769	-9.834172E-1
03/06/2025  21:45:37.993269	-9.961156E-1
03/06/2025  21:45:37.993769	-9.713700E-1
03/06/2025  21:45:37.994269	-9.547643E-1
03/06/2025  21:45:37.994769	-9.443451E-1
03/06/2025  21:45:37.995269	-8.886675E-1
03/06/2025  21:45:37.995769	-8.020577E-1
03/06/2025  21:45:37.996269	-7.626601E-1
03/06/2025  21:45:37.996769	-7.014472E-1
03/06/2025  21:45:37.997269	-6.594447E-1
03/06/2025  21:45:37.997769	-5.910686E-1
03/06/2025  21:45:37.998269	-5.181341E-1
03/06/2025  21:45:37.998769	-5.207389E-1
03/06/2025  21:45:37.999269	-4.386876E-1
03/06/2025  21:45:37.999769	-3.514267E-1
03/06/2025  21:45:38.000269	-3.244018E-1
03/06/2025  21:45:38.000769	-2.182561E-1
03/06/2025  21:45:38.001269	-1.612760E-1
03/06/2025  21:45:38.001769	-9.843511E-2
03/06/2025  21:45:38.002269	-2.191900E-2
03/06/2025  21:45:38.002769	1.099492E-1
03/06/2025  21:45:38.003269	1.138564E-1
03/06/2025  21:45:38.003769	1.275316E-1
03/06/2025  21:45:38.004269	1.594405E-1
03/06/2025  21:45:38.004769	1.571613E-1
03/06/2025  21:45:38.005269	1.799533E-1
03/06/2025  21:45:38.005769	1.187404E-1
03/06/2025  21:45:38.006269	1.210196E-1
03/06/2025  21:45:38.006769	1.708365E-1
03/06/2025  21:45:38.007269	1.552077E-1
03/06/2025  21:45:38.007769	2.089317E-1
03/06/2025  21:45:38.008269	2.063269E-1
03/06/2025  21:45:38.008769	2.284678E-1
03/06/2025  21:45:38.009269	2.528878E-1
03/06/2025  21:45:38.009769	2.760054E-1
03/06/2025  21:45:38.010269	3.723832E-1
03/06/2025  21:45:38.010769	4.055944E-1
03/06/2025  21:45:38.011269	4.645281E-1
03/06/2025  21:45:38.011769	5.211826E-1
03/06/2025  21:45:38.012269	5.687203E-1
03/06/2025  21:45:38.012769	5.713251E-1
03/06/2025  21:45:38.013269	6.738892E-1
03/06/2025  21:45:38.013769	7.806862E-1
03/06/2025  21:45:38.014269	8.923671E-1
03/06/2025  21:45:38.014769	1.113124E+0
03/06/2025  21:45:38.015269	1.145684E+0
03/06/2025  21:45:38.015769	1.288623E+0
03/06/2025  21:45:38.016269	1.445562E+0
03/06/2025  21:45:38.016769	1.588175E+0
03/06/2025  21:45:38.017269	1.750650E+0
03/06/2025  21:45:38.017769	1.847028E+0
03/06/2025  21:45:38.018269	1.939498E+0
03/06/2025  21:45:38.018769	2.069413E+0
03/06/2025  21:45:38.019269	2.199979E+0
03/06/2025  21:45:38.019769	2.252075E+0
03/06/2025  21:45:38.020269	2.405433E+0
03/06/2025  21:45:38.020769	2.554558E+0
03/06/2025  21:45:38.021269	2.702706E+0
03/06/2025  21:45:38.021769	2.864204E+0
03/06/2025  21:45:38.022269	2.843040E+0
03/06/2025  21:45:38.022769	2.883414E+0
03/06/2025  21:45:38.023269	2.886996E+0
03/06/2025  21:45:38.023769	2.882112E+0
03/06/2025  21:45:38.024269	2.896764E+0
03/06/2025  21:45:38.024769	2.836202E+0
03/06/2025  21:45:38.025269	2.770431E+0
03/06/2025  21:45:38.025769	2.701078E+0
03/06/2025  21:45:38.026269	2.575722E+0
03/06/2025  21:45:38.026769	2.455901E+0
03/06/2025  21:45:38.027269	2.248819E+0
03/06/2025  21:45:38.027769	2.133556E+0
03/06/2025  21:45:38.028269	2.053784E+0
03/06/2025  21:45:38.028769	1.856796E+0
03/06/2025  21:45:38.029269	1.721672E+0
03/06/2025  21:45:38.029769	1.551382E+0
03/06/2025  21:45:38.030269	1.431562E+0
03/06/2025  21:45:38.030769	1.317927E+0
03/06/2025  21:45:38.031269	1.262575E+0
03/06/2025  21:45:38.031769	1.128427E+0
03/06/2025  21:45:38.032269	1.034655E+0
03/06/2025  21:45:38.032769	9.421840E-1
03/06/2025  21:45:38.033269	8.718543E-1
03/06/2025  21:45:38.033769	8.122694E-1
03/06/2025  21:45:38.034269	6.979836E-1
03/06/2025  21:45:38.034769	6.722612E-1
03/06/2025  21:45:38.035269	6.703076E-1
03/06/2025  21:45:38.035769	6.217931E-1
03/06/2025  21:45:38.036269	6.429572E-1
03/06/2025  21:45:38.036769	6.328636E-1
03/06/2025  21:45:38.037269	6.257003E-1
03/06/2025  21:45:38.037769	6.146299E-1
03/06/2025  21:45:38.038269	5.996523E-1
03/06/2025  21:45:38.038769	5.954195E-1
03/06/2025  21:45:38.039269	5.443002E-1
03/06/2025  21:45:38.039769	4.935065E-1
03/06/2025  21:45:38.040269	4.098272E-1
03/06/2025  21:45:38.040769	3.697784E-1
03/06/2025  21:45:38.041269	2.564694E-1
03/06/2025  21:45:38.041769	2.528878E-1
03/06/2025  21:45:38.042269	2.597254E-1
03/06/2025  21:45:38.042769	2.271654E-1
03/06/2025  21:45:38.043269	2.613534E-1
03/06/2025  21:45:38.043769	1.477188E-1
03/06/2025  21:45:38.044269	1.395788E-1
03/06/2025  21:45:38.044769	8.031955E-2
03/06/2025  21:45:38.045269	7.152834E-2
03/06/2025  21:45:38.045769	5.622512E-2
03/06/2025  21:45:38.046269	-4.308303E-2
03/06/2025  21:45:38.046769	-1.098311E-1
03/06/2025  21:45:38.047269	-1.899288E-1
03/06/2025  21:45:38.047769	-2.407225E-1
03/06/2025  21:45:38.048269	-3.696603E-1
03/06/2025  21:45:38.048769	-4.321756E-1
03/06/2025  21:45:38.049269	-4.972957E-1
03/06/2025  21:45:38.049769	-5.243205E-1
03/06/2025  21:45:38.050269	-5.249717E-1
03/06/2025  21:45:38.050769	-6.467463E-1
03/06/2025  21:45:38.051269	-7.017728E-1
03/06/2025  21:45:38.051769	-7.102384E-1
03/06/2025  21:45:38.052269	-7.450776E-1
03/06/2025  21:45:38.052769	-6.848416E-1
03/06/2025  21:45:38.053269	-6.841904E-1
03/06/2025  21:45:38.053769	-6.731199E-1
03/06/2025  21:45:38.054269	-6.513047E-1
03/06/2025  21:45:38.054769	-6.233031E-1
03/06/2025  21:45:38.055269	-5.868358E-1
03/06/2025  21:45:38.055769	-6.031158E-1
03/06/2025  21:45:38.056269	-5.350653E-1
03/06/2025  21:45:38.056769	-4.315244E-1
03/06/2025  21:45:38.057269	-3.970107E-1
03/06/2025  21:45:38.057769	-3.071450E-1
03/06/2025  21:45:38.058269	-2.670962E-1
03/06/2025  21:45:38.058769	-1.987201E-1
03/06/2025  21:45:38.059269	-1.339256E-1
03/06/2025  21:45:38.059769	-1.312778E-2
03/06/2025  21:45:38.060269	-7.592576E-3
03/06/2025  21:45:38.060769	5.687632E-2
03/06/2025  21:45:38.061269	8.455236E-2
03/06/2025  21:45:38.061769	1.057164E-1
03/06/2025  21:45:38.062269	1.412068E-1
03/06/2025  21:45:38.062769	1.057164E-1
03/06/2025  21:45:38.063269	8.813396E-2
03/06/2025  21:45:38.063769	9.269237E-2
03/06/2025  21:45:38.064269	3.636349E-2
03/06/2025  21:45:38.064769	5.492271E-2
03/06/2025  21:45:38.065269	-7.266975E-3
03/06/2025  21:45:38.065769	-4.829263E-2
03/06/2025  21:45:38.066269	-1.124359E-1
03/06/2025  21:45:38.066769	-8.638789E-2
03/06/2025  21:45:38.067269	-1.896032E-1
03/06/2025  21:45:38.067769	-2.514673E-1
03/06/2025  21:45:38.068269	-3.139826E-1
03/06/2025  21:45:38.068769	-3.722651E-1
03/06/2025  21:45:38.069269	-4.445484E-1
03/06/2025  21:45:38.069769	-5.288789E-1
03/06/2025  21:45:38.070269	-5.653462E-1
03/06/2025  21:45:38.070769	-5.923710E-1
03/06/2025  21:45:38.071269	-6.333967E-1
03/06/2025  21:45:38.071769	-6.089766E-1
03/06/2025  21:45:38.072269	-6.838648E-1
03/06/2025  21:45:38.072769	-7.105640E-1
03/06/2025  21:45:38.073269	-7.121920E-1
03/06/2025  21:45:38.073769	-6.880976E-1
03/06/2025  21:45:38.074269	-6.386063E-1
03/06/2025  21:45:38.074769	-6.151631E-1
03/06/2025  21:45:38.075269	-5.956270E-1
03/06/2025  21:45:38.075769	-5.637182E-1
03/06/2025  21:45:38.076269	-4.933885E-1
03/06/2025  21:45:38.076769	-4.976213E-1
03/06/2025  21:45:38.077269	-4.396644E-1
03/06/2025  21:45:38.077769	-3.546827E-1
03/06/2025  21:45:38.078269	-2.869578E-1
03/06/2025  21:45:38.078769	-1.814632E-1
03/06/2025  21:45:38.079269	-1.791840E-1
03/06/2025  21:45:38.079769	-1.296928E-1
03/06/2025  21:45:38.080269	-7.824788E-2
03/06/2025  21:45:38.080769	-3.657102E-2
03/06/2025  21:45:38.081269	5.068991E-2
03/06/2025  21:45:38.081769	4.254990E-2
03/06/2025  21:45:38.082269	8.292436E-2
03/06/2025  21:45:38.082769	8.976197E-2
03/06/2025  21:45:38.083269	8.324996E-2
03/06/2025  21:45:38.083769	-2.387260E-2
03/06/2025  21:45:38.084269	5.757044E-3
03/06/2025  21:45:38.084769	-1.377898E-2
03/06/2025  21:45:38.085269	-1.898859E-2
03/06/2025  21:45:38.085769	-9.159750E-2
03/06/2025  21:45:38.086269	-1.446704E-1
03/06/2025  21:45:38.086769	-2.094649E-1
03/06/2025  21:45:38.087269	-2.667706E-1
03/06/2025  21:45:38.087769	-3.305882E-1
03/06/2025  21:45:38.088269	-3.325418E-1
03/06/2025  21:45:38.088769	-4.149188E-1
03/06/2025  21:45:38.089269	-4.823181E-1
03/06/2025  21:45:38.089769	-5.321349E-1
03/06/2025  21:45:38.090269	-5.780446E-1
03/06/2025  21:45:38.090769	-6.102790E-1
03/06/2025  21:45:38.091269	-6.946096E-1
03/06/2025  21:45:38.091769	-7.128432E-1
03/06/2025  21:45:38.092269	-7.160992E-1
03/06/2025  21:45:38.092769	-7.359608E-1
03/06/2025  21:45:38.093269	-6.858184E-1
03/06/2025  21:45:38.093769	-6.968888E-1
03/06/2025  21:45:38.094269	-6.845160E-1
03/06/2025  21:45:38.094769	-6.591191E-1
03/06/2025  21:45:38.095269	-5.607878E-1
03/06/2025  21:45:38.095769	-5.663230E-1
03/06/2025  21:45:38.096269	-4.891557E-1
03/06/2025  21:45:38.096769	-4.409668E-1
03/06/2025  21:45:38.097269	-3.683579E-1
03/06/2025  21:45:38.097769	-3.055170E-1
03/06/2025  21:45:38.098269	-3.169130E-1
03/06/2025  21:45:38.098769	-2.263961E-1
03/06/2025  21:45:38.099269	-1.544384E-1
03/06/2025  21:45:38.099769	-1.195991E-1
03/06/2025  21:45:38.100269	4.780242E-3
03/06/2025  21:45:38.100769	-1.117418E-2
03/06/2025  21:45:38.101269	3.799149E-2
03/06/2025  21:45:38.101769	4.971311E-2
03/06/2025  21:45:38.102269	7.185394E-2
03/06/2025  21:45:38.102769	1.206940E-1
03/06/2025  21:45:38.103269	1.001812E-1
03/06/2025  21:45:38.103769	7.120274E-2
03/06/2025  21:45:38.104269	5.329471E-2
03/06/2025  21:45:38.104769	2.757228E-2
03/06/2025  21:45:38.105269	-4.601343E-2
03/06/2025  21:45:38.105769	-9.485350E-2
03/06/2025  21:45:38.106269	-1.466240E-1
03/06/2025  21:45:38.106769	-1.837424E-1
03/06/2025  21:45:38.107269	-1.899288E-1
03/06/2025  21:45:38.107769	-3.221226E-1
03/06/2025  21:45:38.108269	-3.833355E-1
03/06/2025  21:45:38.108769	-4.471532E-1
03/06/2025  21:45:38.109269	-5.028309E-1
03/06/2025  21:45:38.109769	-5.116221E-1
03/06/2025  21:45:38.110269	-5.715326E-1
03/06/2025  21:45:38.110769	-6.037670E-1
03/06/2025  21:45:38.111269	-6.425135E-1
03/06/2025  21:45:38.111769	-6.711663E-1
03/06/2025  21:45:38.112269	-7.935921E-1
03/06/2025  21:45:38.112769	-7.594041E-1
03/06/2025  21:45:38.113269	-7.418216E-1
03/06/2025  21:45:38.113769	-6.962376E-1
03/06/2025  21:45:38.114269	-7.027496E-1
03/06/2025  21:45:38.114769	-6.509791E-1
03/06/2025  21:45:38.115269	-6.210239E-1
03/06/2025  21:45:38.115769	-5.861846E-1
03/06/2025  21:45:38.116269	-5.314837E-1
03/06/2025  21:45:38.116769	-4.005923E-1
03/06/2025  21:45:38.117269	-3.611947E-1
03/06/2025  21:45:38.117769	-2.937954E-1
03/06/2025  21:45:38.118269	-2.443041E-1
03/06/2025  21:45:38.118769	-1.814632E-1
03/06/2025  21:45:38.119269	-1.029935E-1
03/06/2025  21:45:38.119769	-1.082031E-1
03/06/2025  21:45:38.120269	-5.285104E-2
03/06/2025  21:45:38.120769	1.357145E-2
03/06/2025  21:45:38.121269	3.408428E-2
03/06/2025  21:45:38.121769	1.066932E-1
03/06/2025  21:45:38.122269	1.112516E-1
03/06/2025  21:45:38.122769	1.252524E-1
03/06/2025  21:45:38.123269	1.119028E-1
03/06/2025  21:45:38.123769	1.532541E-1
03/06/2025  21:45:38.124269	9.269237E-2
03/06/2025  21:45:38.124769	6.013232E-2
03/06/2025  21:45:38.125269	3.180508E-2
03/06/2025  21:45:38.125769	-1.996539E-2
03/06/2025  21:45:38.126269	-7.889908E-2
03/06/2025  21:45:38.126769	-1.967664E-1
03/06/2025  21:45:38.127269	-2.557001E-1
03/06/2025  21:45:38.127769	-2.693754E-1
03/06/2025  21:45:38.128269	-3.501243E-1
03/06/2025  21:45:38.128769	-3.836611E-1
03/06/2025  21:45:38.129269	-4.735268E-1
03/06/2025  21:45:38.129769	-5.239949E-1
03/06/2025  21:45:38.130269	-5.604622E-1
03/06/2025  21:45:38.130769	-6.096278E-1
03/06/2025  21:45:38.131269	-6.040926E-1
03/06/2025  21:45:38.131769	-6.516303E-1
03/06/2025  21:45:38.132269	-6.828880E-1
03/06/2025  21:45:38.132769	-6.854928E-1
03/06/2025  21:45:38.133269	-6.897256E-1
03/06/2025  21:45:38.133769	-7.441008E-1
03/06/2025  21:45:38.134269	-6.900512E-1
03/06/2025  21:45:38.134769	-6.480487E-1
03/06/2025  21:45:38.135269	-6.346991E-1
03/06/2025  21:45:38.135769	-4.979469E-1
03/06/2025  21:45:38.136269	-4.872021E-1
03/06/2025  21:45:38.136769	-4.129652E-1
03/06/2025  21:45:38.137269	-3.755211E-1
03/06/2025  21:45:38.137769	-2.937954E-1
03/06/2025  21:45:38.138269	-1.879752E-1
03/06/2025  21:45:38.138769	-1.459728E-1
03/06/2025  21:45:38.139269	-8.996949E-2
03/06/2025  21:45:38.139769	-1.996539E-2
03/06/2025  21:45:38.140269	4.780242E-3
03/06/2025  21:45:38.140769	-6.290174E-3
03/06/2025  21:45:38.141269	5.101551E-2
03/06/2025  21:45:38.141769	8.324996E-2
03/06/2025  21:45:38.142269	1.522773E-1
03/06/2025  21:45:38.142769	1.369740E-1
03/06/2025  21:45:38.143269	1.477188E-1
03/06/2025  21:45:38.143769	1.128796E-1
03/06/2025  21:45:38.144269	1.014836E-1
03/06/2025  21:45:38.144769	7.315634E-2
03/06/2025  21:45:38.145269	1.167868E-1
03/06/2025  21:45:38.145769	4.873631E-2
03/06/2025  21:45:38.146269	-2.257020E-2
03/06/2025  21:45:38.146769	-9.941191E-2
03/06/2025  21:45:38.147269	-1.775560E-1
03/06/2025  21:45:38.147769	-2.303033E-1
03/06/2025  21:45:38.148269	-3.553339E-1
03/06/2025  21:45:38.148769	-4.054764E-1
03/06/2025  21:45:38.149269	-4.412924E-1
03/06/2025  21:45:38.149769	-5.152037E-1
03/06/2025  21:45:38.150269	-5.230181E-1
03/06/2025  21:45:38.150769	-5.900918E-1
03/06/2025  21:45:38.151269	-6.076742E-1
03/06/2025  21:45:38.151769	-6.402343E-1
03/06/2025  21:45:38.152269	-6.096278E-1
03/06/2025  21:45:38.152769	-6.324199E-1
03/06/2025  21:45:38.153269	-6.239543E-1
03/06/2025  21:45:38.153769	-6.285127E-1
03/06/2025  21:45:38.154269	-6.158143E-1
03/06/2025  21:45:38.154769	-5.780446E-1
03/06/2025  21:45:38.155269	-6.180935E-1
03/06/2025  21:45:38.155769	-5.637182E-1
03/06/2025  21:45:38.156269	-4.689684E-1
03/06/2025  21:45:38.156769	-4.097092E-1
03/06/2025  21:45:38.157269	-3.162618E-1
03/06/2025  21:45:38.157769	-2.579793E-1
03/06/2025  21:45:38.158269	-1.944872E-1
03/06/2025  21:45:38.158769	-1.319720E-1
03/06/2025  21:45:38.159269	-6.294466E-2
03/06/2025  21:45:38.159769	3.636349E-2
03/06/2025  21:45:38.160269	7.413314E-2
03/06/2025  21:45:38.160769	1.379508E-1
03/06/2025  21:45:38.161269	1.506493E-1
03/06/2025  21:45:38.161769	1.783253E-1
03/06/2025  21:45:38.162269	1.415324E-1
03/06/2025  21:45:38.162769	1.828837E-1
03/06/2025  21:45:38.163269	1.679061E-1
03/06/2025  21:45:38.163769	1.646501E-1
03/06/2025  21:45:38.164269	2.112109E-1
03/06/2025  21:45:38.164769	1.001812E-1
03/06/2025  21:45:38.165269	9.008757E-2
03/06/2025  21:45:38.165769	5.068991E-2
03/06/2025  21:45:38.166269	-9.546179E-3
03/06/2025  21:45:38.166769	-2.387260E-2
03/06/2025  21:45:38.167269	-1.016911E-1
03/06/2025  21:45:38.167769	-1.772304E-1
03/06/2025  21:45:38.168269	-2.283497E-1
03/06/2025  21:45:38.168769	-2.937954E-1
03/06/2025  21:45:38.169269	-4.302220E-1
03/06/2025  21:45:38.169769	-4.823181E-1
03/06/2025  21:45:38.170269	-5.015285E-1
03/06/2025  21:45:38.170769	-5.210645E-1
03/06/2025  21:45:38.171269	-4.605028E-1
03/06/2025  21:45:38.171769	-5.839054E-1
03/06/2025  21:45:38.172269	-6.177679E-1
03/06/2025  21:45:38.172769	-6.236287E-1
03/06/2025  21:45:38.173269	-5.975806E-1
03/06/2025  21:45:38.173769	-5.461358E-1
03/06/2025  21:45:38.174269	-5.432054E-1
03/06/2025  21:45:38.174769	-5.207389E-1
03/06/2025  21:45:38.175269	-4.943653E-1
03/06/2025  21:45:38.175769	-4.377108E-1
03/06/2025  21:45:38.176269	-3.673811E-1
03/06/2025  21:45:38.176769	-3.716139E-1
03/06/2025  21:45:38.177269	-3.198434E-1
03/06/2025  21:45:38.177769	-2.049065E-1
03/06/2025  21:45:38.178269	-1.671368E-1
03/06/2025  21:45:38.178769	-7.564307E-2
03/06/2025  21:45:38.179269	-3.201261E-2
03/06/2025  21:45:38.179769	3.278188E-2
03/06/2025  21:45:38.180269	7.804035E-2
03/06/2025  21:45:38.180769	1.962333E-1
03/06/2025  21:45:38.181269	1.949309E-1
03/06/2025  21:45:38.181769	2.180486E-1
03/06/2025  21:45:38.182269	2.571206E-1
03/06/2025  21:45:38.182769	2.678654E-1
03/06/2025  21:45:38.183269	2.587486E-1
03/06/2025  21:45:38.183769	1.864653E-1
03/06/2025  21:45:38.184269	1.750693E-1
03/06/2025  21:45:38.184769	1.643245E-1
03/06/2025  21:45:38.185269	1.451140E-1
03/06/2025  21:45:38.185769	1.193916E-1
03/06/2025  21:45:38.186269	1.943226E-2
03/06/2025  21:45:38.186769	-2.940781E-2
03/06/2025  21:45:38.187269	-1.062495E-1
03/06/2025  21:45:38.187769	-1.453216E-1
03/06/2025  21:45:38.188269	-1.703928E-1
03/06/2025  21:45:38.188769	-2.303033E-1
03/06/2025  21:45:38.189269	-3.081218E-1
03/06/2025  21:45:38.189769	-3.774747E-1
03/06/2025  21:45:38.190269	-4.181748E-1
03/06/2025  21:45:38.190769	-5.314837E-1
03/06/2025  21:45:38.191269	-5.379957E-1
03/06/2025  21:45:38.191769	-5.581830E-1
03/06/2025  21:45:38.192269	-5.842310E-1
03/06/2025  21:45:38.192769	-5.230181E-1
03/06/2025  21:45:38.193269	-5.757654E-1
03/06/2025  21:45:38.193769	-5.650206E-1
03/06/2025  21:45:38.194269	-5.318093E-1
03/06/2025  21:45:38.194769	-4.933885E-1
03/06/2025  21:45:38.195269	-4.269660E-1
03/06/2025  21:45:38.195769	-3.963595E-1
03/06/2025  21:45:38.196269	-3.341698E-1
03/06/2025  21:45:38.196769	-2.739338E-1
03/06/2025  21:45:38.197269	-2.192329E-1
03/06/2025  21:45:38.197769	-2.026273E-1
03/06/2025  21:45:38.198269	-1.160175E-1
03/06/2025  21:45:38.198769	-3.754782E-2
03/06/2025  21:45:38.199269	5.134111E-2
03/06/2025  21:45:38.199769	1.679061E-1
03/06/2025  21:45:38.200269	1.584637E-1
03/06/2025  21:45:38.200769	1.981869E-1
03/06/2025  21:45:38.201269	2.418174E-1
03/06/2025  21:45:38.201769	2.603766E-1
03/06/2025  21:45:38.202269	3.336367E-1
03/06/2025  21:45:38.202769	3.310319E-1
03/06/2025  21:45:38.203269	3.173567E-1
03/06/2025  21:45:38.203769	2.994487E-1
03/06/2025  21:45:38.204269	2.909831E-1
03/06/2025  21:45:38.204769	2.584230E-1
03/06/2025  21:45:38.205269	1.591149E-1
03/06/2025  21:45:38.205769	1.281828E-1
03/06/2025  21:45:38.206269	1.040884E-1
03/06/2025  21:45:38.206769	2.171147E-2
03/06/2025  21:45:38.207269	-9.220578E-3
03/06/2025  21:45:38.207769	-9.615590E-2
03/06/2025  21:45:38.208269	-1.420656E-1
03/06/2025  21:45:38.208769	-2.013249E-1
03/06/2025  21:45:38.209269	-2.097905E-1
03/06/2025  21:45:38.209769	-2.768642E-1
03/06/2025  21:45:38.210269	-3.188666E-1
03/06/2025  21:45:38.210769	-3.592411E-1
03/06/2025  21:45:38.211269	-4.015691E-1
03/06/2025  21:45:38.211769	-4.048252E-1
03/06/2025  21:45:38.212269	-4.914349E-1
03/06/2025  21:45:38.212769	-4.907837E-1
03/06/2025  21:45:38.213269	-4.608284E-1
03/06/2025  21:45:38.213769	-4.660380E-1
03/06/2025  21:45:38.214269	-4.084068E-1
03/06/2025  21:45:38.214769	-3.953827E-1
03/06/2025  21:45:38.215269	-3.553339E-1
03/06/2025  21:45:38.215769	-3.025866E-1
03/06/2025  21:45:38.216269	-1.694160E-1
03/06/2025  21:45:38.216769	-1.462984E-1
03/06/2025  21:45:38.217269	-8.117828E-2
03/06/2025  21:45:38.217769	-2.289580E-2
03/06/2025  21:45:38.218269	3.213068E-2
03/06/2025  21:45:38.218769	1.040884E-1
03/06/2025  21:45:38.219269	1.018092E-1
03/06/2025  21:45:38.219769	1.737669E-1
03/06/2025  21:45:38.220269	2.440966E-1
03/06/2025  21:45:38.220769	2.887039E-1
03/06/2025  21:45:38.221269	3.876864E-1
03/06/2025  21:45:38.221769	3.421023E-1
03/06/2025  21:45:38.222269	3.870352E-1
03/06/2025  21:45:38.222769	3.854072E-1
03/06/2025  21:45:38.223269	3.977800E-1
03/06/2025  21:45:38.223769	4.352241E-1
03/06/2025  21:45:38.224269	3.984312E-1
03/06/2025  21:45:38.224769	3.720576E-1
03/06/2025  21:45:38.225269	3.414511E-1
03/06/2025  21:45:38.225769	2.896807E-1
03/06/2025  21:45:38.226269	1.763717E-1
03/06/2025  21:45:38.226769	1.275316E-1
03/06/2025  21:45:38.227269	7.413314E-2
03/06/2025  21:45:38.227769	5.296911E-2
03/06/2025  21:45:38.228269	5.752752E-2
03/06/2025  21:45:38.228769	-6.033985E-2
03/06/2025  21:45:38.229269	-1.515080E-1
03/06/2025  21:45:38.229769	-1.671368E-1
03/06/2025  21:45:38.230269	-2.019761E-1
03/06/2025  21:45:38.230769	-2.032785E-1
03/06/2025  21:45:38.231269	-2.433273E-1
03/06/2025  21:45:38.231769	-2.710034E-1
03/06/2025  21:45:38.232269	-3.035634E-1
03/06/2025  21:45:38.232769	-3.097498E-1
03/06/2025  21:45:38.233269	-4.025459E-1
03/06/2025  21:45:38.233769	-3.302626E-1
03/06/2025  21:45:38.234269	-2.882602E-1
03/06/2025  21:45:38.234769	-2.250937E-1
03/06/2025  21:45:38.235269	-2.084881E-1
03/06/2025  21:45:38.235769	-1.651832E-1
03/06/2025  21:45:38.236269	-8.541109E-2
03/06/2025  21:45:38.236769	-1.996539E-2
03/06/2025  21:45:38.237269	5.622512E-2
03/06/2025  21:45:38.237769	1.825581E-1
03/06/2025  21:45:38.238269	2.180486E-1
03/06/2025  21:45:38.238769	2.792614E-1
03/06/2025  21:45:38.239269	3.417767E-1
03/06/2025  21:45:38.239769	3.906168E-1
03/06/2025  21:45:38.240269	4.502017E-1
03/06/2025  21:45:38.240769	4.479225E-1
03/06/2025  21:45:38.241269	4.980650E-1
03/06/2025  21:45:38.241769	5.556962E-1
03/06/2025  21:45:38.242269	5.511378E-1
03/06/2025  21:45:38.242769	6.172347E-1
03/06/2025  21:45:38.243269	5.827211E-1
03/06/2025  21:45:38.243769	5.625338E-1
03/06/2025  21:45:38.244269	5.566730E-1
03/06/2025  21:45:38.244769	5.836979E-1
03/06/2025  21:45:38.245269	5.202058E-1
03/06/2025  21:45:38.245769	4.808081E-1
03/06/2025  21:45:38.246269	4.254561E-1
03/06/2025  21:45:38.246769	3.658712E-1
03/06/2025  21:45:38.247269	3.124727E-1
03/06/2025  21:45:38.247769	1.819069E-1
03/06/2025  21:45:38.248269	1.477188E-1
03/06/2025  21:45:38.248769	1.086468E-1
03/06/2025  21:45:38.249269	3.017708E-2
03/06/2025  21:45:38.249769	4.450350E-2
03/06/2025  21:45:38.250269	-4.861824E-2
03/06/2025  21:45:38.250769	-8.508549E-2
03/06/2025  21:45:38.251269	-1.414144E-1
03/06/2025  21:45:38.251769	-1.414144E-1
03/06/2025  21:45:38.252269	-1.248087E-1
03/06/2025  21:45:38.252769	-1.466240E-1
03/06/2025  21:45:38.253269	-1.228551E-1
03/06/2025  21:45:38.253769	-1.153663E-1
03/06/2025  21:45:38.254269	-1.091799E-1
03/06/2025  21:45:38.254769	-1.261111E-1
03/06/2025  21:45:38.255269	-8.150388E-2
03/06/2025  21:45:38.255769	-3.885022E-2
03/06/2025  21:45:38.256269	6.208593E-2
03/06/2025  21:45:38.256769	1.838605E-1
03/06/2025  21:45:38.257269	1.770229E-1
03/06/2025  21:45:38.257769	2.502830E-1
03/06/2025  21:45:38.258269	3.180079E-1
03/06/2025  21:45:38.258769	3.772672E-1
03/06/2025  21:45:38.259269	4.918785E-1
03/06/2025  21:45:38.259769	5.329042E-1
03/06/2025  21:45:38.260269	5.674179E-1
03/06/2025  21:45:38.260769	6.191883E-1
03/06/2025  21:45:38.261269	6.673772E-1
03/06/2025  21:45:38.261769	6.058387E-1
03/06/2025  21:45:38.262269	6.768196E-1
03/06/2025  21:45:38.262769	6.807268E-1
03/06/2025  21:45:38.263269	7.171941E-1
03/06/2025  21:45:38.263769	6.706332E-1
03/06/2025  21:45:38.264269	6.875644E-1
03/06/2025  21:45:38.264769	6.445852E-1
03/06/2025  21:45:38.265269	6.191883E-1
03/06/2025  21:45:38.265769	5.690459E-1
03/06/2025  21:45:38.266269	5.654643E-1
03/06/2025  21:45:38.266769	4.752729E-1
03/06/2025  21:45:38.267269	4.160136E-1
03/06/2025  21:45:38.267769	3.414511E-1
03/06/2025  21:45:38.268269	2.929367E-1
03/06/2025  21:45:38.268769	2.440966E-1
03/06/2025  21:45:38.269269	1.021348E-1
03/06/2025  21:45:38.269769	6.013232E-2
03/06/2025  21:45:38.270269	4.678270E-2
03/06/2025  21:45:38.270769	-1.736059E-2
03/06/2025  21:45:38.271269	-1.280218E-2
03/06/2025  21:45:38.271769	-6.815426E-2
03/06/2025  21:45:38.272269	-9.289990E-2
03/06/2025  21:45:38.272769	-7.564307E-2
03/06/2025  21:45:38.273269	-6.290174E-3
03/06/2025  21:45:38.273769	-2.484940E-2
03/06/2025  21:45:38.274269	-1.996539E-2
03/06/2025  21:45:38.274769	2.692107E-2
03/06/2025  21:45:38.275269	5.362031E-2
03/06/2025  21:45:38.275769	9.627397E-2
03/06/2025  21:45:38.276269	1.096236E-1
03/06/2025  21:45:38.276769	2.020941E-1
03/06/2025  21:45:38.277269	2.698190E-1
03/06/2025  21:45:38.277769	3.186591E-1
03/06/2025  21:45:38.278269	3.981056E-1
03/06/2025  21:45:38.278769	4.306657E-1
03/06/2025  21:45:38.279269	5.055538E-1
03/06/2025  21:45:38.279769	5.628594E-1
03/06/2025  21:45:38.280269	6.185371E-1
03/06/2025  21:45:38.280769	7.051469E-1
03/06/2025  21:45:38.281269	7.315205E-1
03/06/2025  21:45:38.281769	7.494285E-1
03/06/2025  21:45:38.282269	7.735230E-1
03/06/2025  21:45:38.282769	7.810118E-1
03/06/2025  21:45:38.283269	6.927740E-1
03/06/2025  21:45:38.283769	6.735636E-1
03/06/2025  21:45:38.284269	6.650980E-1
03/06/2025  21:45:38.284769	6.475156E-1
03/06/2025  21:45:38.285269	7.123101E-1
03/06/2025  21:45:38.285769	5.934659E-1
03/06/2025  21:45:38.286269	5.071818E-1
03/06/2025  21:45:38.286769	4.619233E-1
03/06/2025  21:45:38.287269	3.837792E-1
03/06/2025  21:45:38.287769	3.704296E-1
03/06/2025  21:45:38.288269	2.958671E-1
03/06/2025  21:45:38.288769	2.232582E-1
03/06/2025  21:45:38.289269	1.591149E-1
03/06/2025  21:45:38.289769	9.725078E-2
03/06/2025  21:45:38.290269	-4.112942E-2
03/06/2025  21:45:38.290769	-5.871185E-2
03/06/2025  21:45:38.291269	-9.713271E-2
03/06/2025  21:45:38.291769	-7.564307E-2
03/06/2025  21:45:38.292269	-1.381584E-1
03/06/2025  21:45:38.292769	-1.515080E-1
03/06/2025  21:45:38.293269	-1.443448E-1
03/06/2025  21:45:38.293769	-1.293672E-1
03/06/2025  21:45:38.294269	-1.186223E-1
03/06/2025  21:45:38.294769	-3.494302E-2
03/06/2025  21:45:38.295269	-2.550060E-2
03/06/2025  21:45:38.295769	4.454642E-3
03/06/2025  21:45:38.296269	6.013232E-2
03/06/2025  21:45:38.296769	1.223220E-1
03/06/2025  21:45:38.297269	1.874421E-1
03/06/2025  21:45:38.297769	1.727901E-1
03/06/2025  21:45:38.298269	2.421430E-1
03/06/2025  21:45:38.298769	3.088911E-1
03/06/2025  21:45:38.299269	3.557776E-1
03/06/2025  21:45:38.299769	4.557369E-1
03/06/2025  21:45:38.300269	4.629001E-1
03/06/2025  21:45:38.300769	5.110890E-1
03/06/2025  21:45:38.301269	5.478818E-1
03/06/2025  21:45:38.301769	6.191883E-1
03/06/2025  21:45:38.302269	6.214675E-1
03/06/2025  21:45:38.302769	6.130019E-1
03/06/2025  21:45:38.303269	5.973731E-1
03/06/2025  21:45:38.303769	5.895587E-1
03/06/2025  21:45:38.304269	5.667667E-1
03/06/2025  21:45:38.304769	4.655049E-1
03/06/2025  21:45:38.305269	4.358753E-1
03/06/2025  21:45:38.305769	4.153624E-1
03/06/2025  21:45:38.306269	3.336367E-1
03/06/2025  21:45:38.306769	2.906575E-1
03/06/2025  21:45:38.307269	2.037221E-1
03/06/2025  21:45:38.307769	1.359972E-1
03/06/2025  21:45:38.308269	7.673795E-2
03/06/2025  21:45:38.308769	2.175438E-3
03/06/2025  21:45:38.309269	-1.670939E-2
03/06/2025  21:45:38.309769	-9.973751E-2
03/06/2025  21:45:38.310269	-1.436936E-1
03/06/2025  21:45:38.310769	-2.029529E-1
03/06/2025  21:45:38.311269	-2.488625E-1
03/06/2025  21:45:38.311769	-3.341698E-1
03/06/2025  21:45:38.312269	-3.817075E-1
03/06/2025  21:45:38.312769	-3.768235E-1
03/06/2025  21:45:38.313269	-3.657531E-1
03/06/2025  21:45:38.313769	-2.807714E-1
03/06/2025  21:45:38.314269	-3.455659E-1
03/06/2025  21:45:38.314769	-3.305882E-1
03/06/2025  21:45:38.315269	-2.869578E-1
03/06/2025  21:45:38.315769	-2.410481E-1
03/06/2025  21:45:38.316269	-1.375072E-1
03/06/2025  21:45:38.316769	-1.023423E-1
03/06/2025  21:45:38.317269	-4.861824E-2
03/06/2025  21:45:38.317769	2.268827E-2
03/06/2025  21:45:38.318269	7.576114E-2
03/06/2025  21:45:38.318769	4.743390E-2
03/06/2025  21:45:38.319269	1.301364E-1
03/06/2025  21:45:38.319769	1.985125E-1
03/06/2025  21:45:38.320269	2.590742E-1
03/06/2025  21:45:38.320769	3.919192E-1
03/06/2025  21:45:38.321269	3.254967E-1
03/06/2025  21:45:38.321769	3.359159E-1
03/06/2025  21:45:38.322269	3.727088E-1
03/06/2025  21:45:38.322769	3.655456E-1
03/06/2025  21:45:38.323269	3.941984E-1
03/06/2025  21:45:38.323769	3.785696E-1
03/06/2025  21:45:38.324269	3.401487E-1
03/06/2025  21:45:38.324769	2.978207E-1
03/06/2025  21:45:38.325269	2.649350E-1
03/06/2025  21:45:38.325769	2.287934E-1
03/06/2025  21:45:38.326269	1.011580E-1
03/06/2025  21:45:38.326769	3.538669E-2
03/06/2025  21:45:38.327269	5.431443E-3
03/06/2025  21:45:38.327769	-9.094630E-2
03/06/2025  21:45:38.328269	-1.156919E-1
03/06/2025  21:45:38.328769	-2.075113E-1
03/06/2025  21:45:38.329269	-2.732826E-1
03/06/2025  21:45:38.329769	-3.240762E-1
03/06/2025  21:45:38.330269	-3.169130E-1
03/06/2025  21:45:38.330769	-3.885451E-1
03/06/2025  21:45:38.331269	-4.295708E-1
03/06/2025  21:45:38.331769	-4.614796E-1
03/06/2025  21:45:38.332269	-4.914349E-1
03/06/2025  21:45:38.332769	-5.002261E-1
03/06/2025  21:45:38.333269	-5.445078E-1
03/06/2025  21:45:38.333769	-5.327861E-1
03/06/2025  21:45:38.334269	-4.946909E-1
03/06/2025  21:45:38.334769	-4.826437E-1
03/06/2025  21:45:38.335269	-4.237100E-1
03/06/2025  21:45:38.335769	-4.243612E-1
03/06/2025  21:45:38.336269	-3.533803E-1
03/06/2025  21:45:38.336769	-3.087730E-1
03/06/2025  21:45:38.337269	-2.303033E-1
03/06/2025  21:45:38.337769	-1.736488E-1
03/06/2025  21:45:38.338269	-1.140639E-1
03/06/2025  21:45:38.338769	-5.545584E-2
03/06/2025  21:45:38.339269	1.487386E-2
03/06/2025  21:45:38.339769	7.804035E-2
03/06/2025  21:45:38.340269	5.687632E-2
03/06/2025  21:45:38.340769	1.151588E-1
03/06/2025  21:45:38.341269	1.740925E-1
03/06/2025  21:45:38.341769	1.841861E-1
03/06/2025  21:45:38.342269	2.747030E-1
03/06/2025  21:45:38.342769	2.024197E-1
03/06/2025  21:45:38.343269	1.874421E-1
03/06/2025  21:45:38.343769	1.809301E-1
03/06/2025  21:45:38.344269	1.486957E-1
03/06/2025  21:45:38.344769	1.737669E-1
03/06/2025  21:45:38.345269	1.164612E-1
03/06/2025  21:45:38.345769	7.445874E-2
03/06/2025  21:45:38.346269	5.757044E-3
03/06/2025  21:45:38.346769	-6.033985E-2
03/06/2025  21:45:38.347269	-1.931848E-1
03/06/2025  21:45:38.347769	-2.338849E-1
03/06/2025  21:45:38.348269	-2.768642E-1
03/06/2025  21:45:38.348769	-3.152850E-1
03/06/2025  21:45:38.349269	-3.273322E-1
03/06/2025  21:45:38.349769	-4.331524E-1
03/06/2025  21:45:38.350269	-4.885045E-1
03/06/2025  21:45:38.350769	-5.292045E-1
03/06/2025  21:45:38.351269	-5.715326E-1
03/06/2025  21:45:38.351769	-5.331117E-1
03/06/2025  21:45:38.352269	-5.884638E-1
03/06/2025  21:45:38.352769	-5.979062E-1
03/06/2025  21:45:38.353269	-5.868358E-1
03/06/2025  21:45:38.353769	-5.809750E-1
03/06/2025  21:45:38.354269	-5.689278E-1
03/06/2025  21:45:38.354769	-5.936734E-1
03/06/2025  21:45:38.355269	-5.438566E-1
03/06/2025  21:45:38.355769	-4.855741E-1
03/06/2025  21:45:38.356269	-4.487812E-1
03/06/2025  21:45:38.356769	-3.823587E-1
03/06/2025  21:45:38.357269	-3.100754E-1
03/06/2025  21:45:38.357769	-2.543977E-1
03/06/2025  21:45:38.358269	-1.941616E-1
03/06/2025  21:45:38.358769	-9.550470E-2
03/06/2025  21:45:38.359269	-3.819902E-2
03/06/2025  21:45:38.359769	-5.313372E-3
03/06/2025  21:45:38.360269	4.515470E-2
03/06/2025  21:45:38.360769	8.097075E-2
03/06/2025  21:45:38.361269	1.337180E-1
03/06/2025  21:45:38.361769	1.079956E-1
03/06/2025  21:45:38.362269	1.392532E-1
03/06/2025  21:45:38.362769	1.539053E-1
03/06/2025  21:45:38.363269	1.307876E-1
03/06/2025  21:45:38.363769	1.604173E-1
03/06/2025  21:45:38.364269	9.659958E-2
03/06/2025  21:45:38.364769	5.687632E-2
03/06/2025  21:45:38.365269	3.864269E-2
03/06/2025  21:45:38.365769	4.385230E-2
03/06/2025  21:45:38.366269	-4.796703E-2
03/06/2025  21:45:38.366769	-1.039703E-1
03/06/2025  21:45:38.367269	-1.687648E-1
03/06/2025  21:45:38.367769	-2.306289E-1
03/06/2025  21:45:38.368269	-2.876090E-1
03/06/2025  21:45:38.368769	-4.048252E-1
03/06/2025  21:45:38.369269	-4.445484E-1
03/06/2025  21:45:38.369769	-4.618052E-1
03/06/2025  21:45:38.370269	-5.142269E-1
03/06/2025  21:45:38.370769	-5.109709E-1
03/06/2025  21:45:38.371269	-6.014878E-1
03/06/2025  21:45:38.371769	-6.167911E-1
03/06/2025  21:45:38.372269	-6.509791E-1
03/06/2025  21:45:38.372769	-6.454439E-1
03/06/2025  21:45:38.373269	-5.966038E-1
03/06/2025  21:45:38.373769	-5.933478E-1
03/06/2025  21:45:38.374269	-5.689278E-1
03/06/2025  21:45:38.374769	-5.500430E-1
03/06/2025  21:45:38.375269	-5.044589E-1
03/06/2025  21:45:38.375769	-5.295301E-1
03/06/2025  21:45:38.376269	-4.491068E-1
03/06/2025  21:45:38.376769	-3.953827E-1
03/06/2025  21:45:38.377269	-3.113778E-1
03/06/2025  21:45:38.377769	-1.928592E-1
03/06/2025  21:45:38.378269	-1.951384E-1
03/06/2025  21:45:38.378769	-1.485776E-1
03/06/2025  21:45:38.379269	-8.671349E-2
03/06/2025  21:45:38.379769	-2.387260E-2
03/06/2025  21:45:38.380269	5.915552E-2
03/06/2025  21:45:38.380769	8.129635E-2
03/06/2025  21:45:38.381269	1.119028E-1
03/06/2025  21:45:38.381769	1.219964E-1
03/06/2025  21:45:38.382269	1.584637E-1
03/06/2025  21:45:38.382769	9.171557E-2
03/06/2025  21:45:38.383269	1.232988E-1
03/06/2025  21:45:38.383769	1.158100E-1
03/06/2025  21:45:38.384269	1.138564E-1
03/06/2025  21:45:38.384769	7.478434E-2
03/06/2025  21:45:38.385269	4.189870E-2
03/06/2025  21:45:38.385769	4.454642E-3
03/06/2025  21:45:38.386269	-7.141027E-2
03/06/2025  21:45:38.386769	-1.173199E-1
03/06/2025  21:45:38.387269	-1.371816E-1
03/06/2025  21:45:38.387769	-2.211865E-1
03/06/2025  21:45:38.388269	-2.817482E-1
03/06/2025  21:45:38.388769	-3.449147E-1
03/06/2025  21:45:38.389269	-4.175236E-1
03/06/2025  21:45:38.389769	-4.686428E-1
03/06/2025  21:45:38.390269	-5.659974E-1
03/06/2025  21:45:38.390769	-6.034414E-1
03/06/2025  21:45:38.391269	-6.027902E-1
03/06/2025  21:45:38.391769	-6.522815E-1
03/06/2025  21:45:38.392269	-6.291639E-1
03/06/2025  21:45:38.392769	-6.600959E-1
03/06/2025  21:45:38.393269	-6.552119E-1
03/06/2025  21:45:38.393769	-6.337223E-1
03/06/2025  21:45:38.394269	-5.497174E-1
03/06/2025  21:45:38.394769	-5.519966E-1
03/06/2025  21:45:38.395269	-5.200877E-1
03/06/2025  21:45:38.395769	-4.810157E-1
03/06/2025  21:45:38.396269	-4.162212E-1
03/06/2025  21:45:38.396769	-3.559851E-1
03/06/2025  21:45:38.397269	-3.374259E-1
03/06/2025  21:45:38.397769	-2.648169E-1
03/06/2025  21:45:38.398269	-1.869984E-1
03/06/2025  21:45:38.398769	-1.336000E-1
03/06/2025  21:45:38.399269	-2.745420E-2
03/06/2025  21:45:38.399769	-2.322140E-2
03/06/2025  21:45:38.400269	2.301387E-2
03/06/2025  21:45:38.400769	7.738915E-2
03/06/2025  21:45:38.401269	1.151588E-1
03/06/2025  21:45:38.401769	1.822325E-1
03/06/2025  21:45:38.402269	2.089317E-1
03/06/2025  21:45:38.402769	2.232582E-1
03/06/2025  21:45:38.403269	2.164205E-1
03/06/2025  21:45:38.403769	1.978613E-1
03/06/2025  21:45:38.404269	9.138997E-2
03/06/2025  21:45:38.404769	8.845956E-2
03/06/2025  21:45:38.405269	7.510994E-2
03/06/2025  21:45:38.405769	2.106027E-2
03/06/2025  21:45:38.406269	2.920028E-2
03/06/2025  21:45:38.406769	-9.485350E-2
03/06/2025  21:45:38.407269	-1.453216E-1
03/06/2025  21:45:38.407769	-2.055577E-1
03/06/2025  21:45:38.408269	-2.635145E-1
03/06/2025  21:45:38.408769	-2.723058E-1
03/06/2025  21:45:38.409269	-3.647763E-1
03/06/2025  21:45:38.409769	-4.139420E-1
03/06/2025  21:45:38.410269	-4.810157E-1
03/06/2025  21:45:38.410769	-5.230181E-1
03/06/2025  21:45:38.411269	-6.268847E-1
03/06/2025  21:45:38.411769	-6.236287E-1
03/06/2025  21:45:38.412269	-6.574911E-1
03/06/2025  21:45:38.412769	-6.255823E-1
03/06/2025  21:45:38.413269	-6.441415E-1
03/06/2025  21:45:38.413769	-6.180935E-1
03/06/2025  21:45:38.414269	-5.959526E-1
03/06/2025  21:45:38.414769	-5.799982E-1
03/06/2025  21:45:38.415269	-5.301813E-1
03/06/2025  21:45:38.415769	-4.504092E-1
03/06/2025  21:45:38.416269	-4.015691E-1
03/06/2025  21:45:38.416769	-3.432867E-1
03/06/2025  21:45:38.417269	-2.866322E-1
03/06/2025  21:45:38.417769	-2.215121E-1
03/06/2025  21:45:38.418269	-1.576944E-1
03/06/2025  21:45:38.418769	-1.524848E-1
03/06/2025  21:45:38.419269	-7.108467E-2
03/06/2025  21:45:38.419769	9.989850E-3
03/06/2025  21:45:38.420269	1.519946E-2
03/06/2025  21:45:38.420769	9.399477E-2
03/06/2025  21:45:38.421269	1.141820E-1
03/06/2025  21:45:38.421769	1.490213E-1
03/06/2025  21:45:38.422269	1.753949E-1
03/06/2025  21:45:38.422769	2.444222E-1
03/06/2025  21:45:38.423269	1.903725E-1
03/06/2025  21:45:38.423769	1.884189E-1
03/06/2025  21:45:38.424269	1.649757E-1
03/06/2025  21:45:38.424769	1.223220E-1
03/06/2025  21:45:38.425269	1.050652E-1
03/06/2025  21:45:38.425769	-1.149978E-2
03/06/2025  21:45:38.426269	-5.968865E-2
03/06/2025  21:45:38.426769	-9.876071E-2
03/06/2025  21:45:38.427269	-1.687648E-1
03/06/2025  21:45:38.427769	-2.198841E-1
03/06/2025  21:45:38.428269	-2.830506E-1
03/06/2025  21:45:38.428769	-3.312394E-1
03/06/2025  21:45:38.429269	-4.126396E-1
03/06/2025  21:45:38.429769	-4.699452E-1
03/06/2025  21:45:38.430269	-4.745037E-1
03/06/2025  21:45:38.430769	-5.340885E-1
03/06/2025  21:45:38.431269	-5.839054E-1
03/06/2025  21:45:38.431769	-5.975806E-1
03/06/2025  21:45:38.432269	-6.408855E-1
03/06/2025  21:45:38.432769	-7.138200E-1
03/06/2025  21:45:38.433269	-6.708407E-1
03/06/2025  21:45:38.433769	-6.649799E-1
03/06/2025  21:45:38.434269	-6.490255E-1
03/06/2025  21:45:38.434769	-5.301813E-1
03/06/2025  21:45:38.435269	-5.699046E-1
03/06/2025  21:45:38.435769	-5.265997E-1
03/06/2025  21:45:38.436269	-4.725500E-1
03/06/2025  21:45:38.436769	-4.106860E-1
03/06/2025  21:45:38.437269	-2.967258E-1
03/06/2025  21:45:38.437769	-2.316057E-1
03/06/2025  21:45:38.438269	-1.668112E-1
03/06/2025  21:45:38.438769	-1.072263E-1
03/06/2025  21:45:38.439269	-3.168701E-2
03/06/2025  21:45:38.439769	-4.796703E-2
03/06/2025  21:45:38.440269	1.519946E-2
03/06/2025  21:45:38.440769	6.338833E-2
03/06/2025  21:45:38.441269	1.363228E-1
03/06/2025  21:45:38.441769	1.366484E-1
03/06/2025  21:45:38.442269	1.701853E-1
03/06/2025  21:45:38.442769	1.753949E-1
03/06/2025  21:45:38.443269	1.526029E-1
03/06/2025  21:45:38.443769	1.412068E-1
03/06/2025  21:45:38.444269	1.643245E-1
03/06/2025  21:45:38.444769	1.226476E-1
03/06/2025  21:45:38.445269	8.715716E-2
03/06/2025  21:45:38.445769	3.799149E-2
03/06/2025  21:45:38.446269	-4.340863E-2
03/06/2025  21:45:38.446769	-7.987588E-2
03/06/2025  21:45:38.447269	-2.042553E-1
03/06/2025  21:45:38.447769	-2.664450E-1
03/06/2025  21:45:38.448269	-3.237506E-1
03/06/2025  21:45:38.448769	-4.005923E-1
03/06/2025  21:45:38.449269	-4.302220E-1
03/06/2025  21:45:38.449769	-5.197621E-1
03/06/2025  21:45:38.450269	-5.467870E-1
03/06/2025  21:45:38.450769	-6.034414E-1
03/06/2025  21:45:38.451269	-5.695790E-1
03/06/2025  21:45:38.451769	-6.184191E-1
03/06/2025  21:45:38.452269	-6.340479E-1
03/06/2025  21:45:38.452769	-6.526071E-1
03/06/2025  21:45:38.453269	-6.444671E-1
03/06/2025  21:45:38.453769	-6.200471E-1
03/06/2025  21:45:38.454269	-6.418623E-1
03/06/2025  21:45:38.454769	-5.855334E-1
03/06/2025  21:45:38.455269	-5.402749E-1
03/06/2025  21:45:38.455769	-5.236693E-1
03/06/2025  21:45:38.456269	-4.377108E-1
03/06/2025  21:45:38.456769	-3.957083E-1
03/06/2025  21:45:38.457269	-3.201690E-1
03/06/2025  21:45:38.457769	-2.677474E-1
03/06/2025  21:45:38.458269	-2.097905E-1
03/06/2025  21:45:38.458769	-1.026679E-1
03/06/2025  21:45:38.459269	-5.578145E-2
03/06/2025  21:45:38.459769	2.175438E-3
03/06/2025  21:45:38.460269	3.571229E-2
03/06/2025  21:45:38.460769	8.780836E-2
03/06/2025  21:45:38.461269	7.478434E-2
03/06/2025  21:45:38.461769	8.748276E-2
03/06/2025  21:45:38.462269	1.399044E-1
03/06/2025  21:45:38.462769	1.542309E-1
03/06/2025  21:45:38.463269	2.147925E-1
03/06/2025  21:45:38.463769	1.275316E-1
03/06/2025  21:45:38.464269	1.206940E-1
03/06/2025  21:45:38.464769	9.887878E-2
03/06/2025  21:45:38.465269	6.794673E-2
03/06/2025  21:45:38.465769	5.752752E-2
03/06/2025  21:45:38.466269	-6.941375E-3
03/06/2025  21:45:38.466769	-7.694548E-2
03/06/2025  21:45:38.467269	-1.401120E-1
03/06/2025  21:45:38.467769	-1.928592E-1
03/06/2025  21:45:38.468269	-3.419843E-1
03/06/2025  21:45:38.468769	-3.960339E-1
03/06/2025  21:45:38.469269	-4.478044E-1
03/06/2025  21:45:38.469769	-4.950165E-1
03/06/2025  21:45:38.470269	-4.517116E-1
03/06/2025  21:45:38.470769	-5.946502E-1
03/06/2025  21:45:38.471269	-6.268847E-1
03/06/2025  21:45:38.471769	-6.506535E-1
03/06/2025  21:45:38.472269	-6.705151E-1
03/06/2025  21:45:38.472769	-6.229775E-1
03/06/2025  21:45:38.473269	-6.317687E-1
03/06/2025  21:45:38.473769	-6.073486E-1
03/06/2025  21:45:38.474269	-5.897662E-1
03/06/2025  21:45:38.474769	-5.500430E-1
03/06/2025  21:45:38.475269	-5.171573E-1
03/06/2025  21:45:38.475769	-5.399493E-1
03/06/2025  21:45:38.476269	-4.705964E-1
03/06/2025  21:45:38.476769	-3.992899E-1
03/06/2025  21:45:38.477269	-3.455659E-1
03/06/2025  21:45:38.477769	-2.475601E-1
03/06/2025  21:45:38.478269	-2.159769E-1
03/06/2025  21:45:38.478769	-1.580200E-1
03/06/2025  21:45:38.479269	-8.508549E-2
03/06/2025  21:45:38.479769	3.799149E-2
03/06/2025  21:45:38.480269	6.078352E-2
03/06/2025  21:45:38.480769	8.878516E-2
03/06/2025  21:45:38.481269	1.353460E-1
03/06/2025  21:45:38.481769	1.542309E-1
03/06/2025  21:45:38.482269	1.841861E-1
03/06/2025  21:45:38.482769	1.177636E-1
03/06/2025  21:45:38.483269	1.210196E-1
03/06/2025  21:45:38.483769	1.392532E-1
03/06/2025  21:45:38.484269	1.037628E-1
03/06/2025  21:45:38.484769	1.066932E-1
03/06/2025  21:45:38.485269	5.101551E-2
03/06/2025  21:45:38.485769	6.733845E-3
03/06/2025  21:45:38.486269	-7.564307E-2
03/06/2025  21:45:38.486769	-6.294466E-2
03/06/2025  21:45:38.487269	-1.554152E-1
03/06/2025  21:45:38.487769	-2.338849E-1
03/06/2025  21:45:38.488269	-2.983538E-1
03/06/2025  21:45:38.488769	-3.585899E-1
03/06/2025  21:45:38.489269	-4.171980E-1
03/06/2025  21:45:38.489769	-5.399493E-1
03/06/2025  21:45:38.490269	-5.813006E-1
03/06/2025  21:45:38.490769	-6.158143E-1
03/06/2025  21:45:38.491269	-6.509791E-1
03/06/2025  21:45:38.491769	-6.027902E-1
03/06/2025  21:45:38.492269	-7.014472E-1
03/06/2025  21:45:38.492769	-6.871208E-1
03/06/2025  21:45:38.493269	-6.920048E-1
03/06/2025  21:45:38.493769	-6.770271E-1
03/06/2025  21:45:38.494269	-6.272103E-1
03/06/2025  21:45:38.494769	-6.008366E-1
03/06/2025  21:45:38.495269	-5.842310E-1
03/06/2025  21:45:38.495769	-5.399493E-1
03/06/2025  21:45:38.496269	-4.595260E-1
03/06/2025  21:45:38.496769	-4.559444E-1
03/06/2025  21:45:38.497269	-3.826843E-1
03/06/2025  21:45:38.497769	-3.283090E-1
03/06/2025  21:45:38.498269	-2.299777E-1
03/06/2025  21:45:38.498769	-1.244831E-1
03/06/2025  21:45:38.499269	-1.121103E-1
03/06/2025  21:45:38.499769	-7.141027E-2
03/06/2025  21:45:38.500269	-3.071021E-2
03/06/2025  21:45:38.500769	3.477840E-3
03/06/2025  21:45:38.501269	1.018092E-1
03/06/2025  21:45:38.501769	1.102748E-1
03/06/2025  21:45:38.502269	1.470676E-1
03/06/2025  21:45:38.502769	1.369740E-1
03/06/2025  21:45:38.503269	1.356716E-1
03/06/2025  21:45:38.503769	1.037628E-1
03/06/2025  21:45:38.504269	5.427151E-2
03/06/2025  21:45:38.504769	1.910666E-2
03/06/2025  21:45:38.505269	2.366507E-2
03/06/2025  21:45:38.505769	-4.178063E-2
03/06/2025  21:45:38.506269	-1.095055E-1
03/06/2025  21:45:38.506769	-1.515080E-1
03/06/2025  21:45:38.507269	-2.062089E-1
03/06/2025  21:45:38.507769	-2.758874E-1
03/06/2025  21:45:38.508269	-2.905394E-1
03/06/2025  21:45:38.508769	-3.716139E-1
03/06/2025  21:45:38.509269	-4.311988E-1
03/06/2025  21:45:38.509769	-4.985981E-1
03/06/2025  21:45:38.510269	-5.301813E-1
03/06/2025  21:45:38.510769	-5.676254E-1
03/06/2025  21:45:38.511269	-6.535839E-1
03/06/2025  21:45:38.511769	-6.659567E-1
03/06/2025  21:45:38.512269	-6.666079E-1
03/06/2025  21:45:38.512769	-6.991680E-1
03/06/2025  21:45:38.513269	-6.496767E-1
03/06/2025  21:45:38.513769	-6.578167E-1
03/06/2025  21:45:38.514269	-6.242799E-1
03/06/2025  21:45:38.514769	-6.138607E-1
03/06/2025  21:45:38.515269	-5.142269E-1
03/06/2025  21:45:38.515769	-5.038077E-1
03/06/2025  21:45:38.516269	-4.419436E-1
03/06/2025  21:45:38.516769	-4.018947E-1
03/06/2025  21:45:38.517269	-3.488219E-1
03/06/2025  21:45:38.517769	-2.814226E-1
03/06/2025  21:45:38.518269	-2.954234E-1
03/06/2025  21:45:38.518769	-2.329081E-1
03/06/2025  21:45:38.519269	-1.371816E-1
03/06/2025  21:45:38.519769	-9.583030E-2
03/06/2025  21:45:38.520269	1.161785E-2
03/06/2025  21:45:38.520769	1.198637E-3
03/06/2025  21:45:38.521269	4.287550E-2
03/06/2025  21:45:38.521769	7.087714E-2
03/06/2025  21:45:38.522269	8.552916E-2
03/06/2025  21:45:38.522769	1.402300E-1
03/06/2025  21:45:38.523269	1.187404E-1
03/06/2025  21:45:38.523769	1.161356E-1
03/06/2025  21:45:38.524269	8.650596E-2
03/06/2025  21:45:38.524769	5.394591E-2
03/06/2025  21:45:38.525269	-3.429181E-2
03/06/2025  21:45:38.525769	-5.317664E-2
03/06/2025  21:45:38.526269	-1.026679E-1
03/06/2025  21:45:38.526769	-1.524848E-1
03/06/2025  21:45:38.527269	-1.489032E-1
03/06/2025  21:45:38.527769	-2.677474E-1
03/06/2025  21:45:38.528269	-3.397051E-1
03/06/2025  21:45:38.528769	-3.904987E-1
03/06/2025  21:45:38.529269	-4.526884E-1
03/06/2025  21:45:38.529769	-4.790621E-1
03/06/2025  21:45:38.530269	-5.295301E-1
03/06/2025  21:45:38.530769	-5.721838E-1
03/06/2025  21:45:38.531269	-6.093022E-1
03/06/2025  21:45:38.531769	-6.294895E-1
03/06/2025  21:45:38.532269	-7.567993E-1
03/06/2025  21:45:38.532769	-7.242392E-1
03/06/2025  21:45:38.533269	-7.151224E-1
03/06/2025  21:45:38.533769	-6.636775E-1
03/06/2025  21:45:38.534269	-6.802831E-1
03/06/2025  21:45:38.534769	-6.382807E-1
03/06/2025  21:45:38.535269	-5.956270E-1
03/06/2025  21:45:38.535769	-5.532990E-1
03/06/2025  21:45:38.536269	-4.956677E-1
03/06/2025  21:45:38.536769	-3.856147E-1
03/06/2025  21:45:38.537269	-3.351466E-1
03/06/2025  21:45:38.537769	-2.768642E-1
03/06/2025  21:45:38.538269	-2.215121E-1
03/06/2025  21:45:38.538769	-1.642064E-1
03/06/2025  21:45:38.539269	-9.973751E-2
03/06/2025  21:45:38.539769	-9.192310E-2
03/06/2025  21:45:38.540269	-4.340863E-2
03/06/2025  21:45:38.540769	1.943226E-2
03/06/2025  21:45:38.541269	3.734029E-2
03/06/2025  21:45:38.541769	1.138564E-1
03/06/2025  21:45:38.542269	9.399477E-2
03/06/2025  21:45:38.542769	1.128796E-1
03/06/2025  21:45:38.543269	9.399477E-2
03/06/2025  21:45:38.543769	1.477188E-1
03/06/2025  21:45:38.544269	9.366917E-2
03/06/2025  21:45:38.544769	6.436513E-2
03/06/2025  21:45:38.545269	2.073467E-2
03/06/2025  21:45:38.545769	-1.573259E-2
03/06/2025  21:45:38.546269	-7.531747E-2
03/06/2025  21:45:38.546769	-1.909056E-1
03/06/2025  21:45:38.547269	-2.667706E-1
03/06/2025  21:45:38.547769	-2.859810E-1
03/06/2025  21:45:38.548269	-3.628227E-1
03/06/2025  21:45:38.548769	-4.015691E-1
03/06/2025  21:45:38.549269	-4.748293E-1
03/06/2025  21:45:38.549769	-5.252973E-1
03/06/2025  21:45:38.550269	-5.575318E-1
03/06/2025  21:45:38.550769	-6.040926E-1
03/06/2025  21:45:38.551269	-6.161399E-1
03/06/2025  21:45:38.551769	-6.226519E-1
03/06/2025  21:45:38.552269	-6.636775E-1
03/06/2025  21:45:38.552769	-6.753991E-1
03/06/2025  21:45:38.553269	-6.662823E-1
03/06/2025  21:45:38.553769	-6.962376E-1
03/06/2025  21:45:38.554269	-6.701895E-1
03/06/2025  21:45:38.554769	-6.386063E-1
03/06/2025  21:45:38.555269	-6.223263E-1
03/06/2025  21:45:38.555769	-4.911093E-1
03/06/2025  21:45:38.556269	-4.712476E-1
03/06/2025  21:45:38.556769	-4.185004E-1
03/06/2025  21:45:38.557269	-3.566363E-1
03/06/2025  21:45:38.557769	-2.980282E-1
03/06/2025  21:45:38.558269	-1.951384E-1
03/06/2025  21:45:38.558769	-1.462984E-1
03/06/2025  21:45:38.559269	-9.094630E-2
03/06/2025  21:45:38.559769	-2.257020E-2
03/06/2025  21:45:38.560269	1.389706E-2
03/06/2025  21:45:38.560769	-1.080566E-3
03/06/2025  21:45:38.561269	5.524832E-2
03/06/2025  21:45:38.561769	9.497157E-2
03/06/2025  21:45:38.562269	1.490213E-1
03/06/2025  21:45:38.562769	1.102748E-1
03/06/2025  21:45:38.563269	1.333924E-1
03/06/2025  21:45:38.563769	9.790198E-2
03/06/2025  21:45:38.564269	9.790198E-2
03/06/2025  21:45:38.564769	5.915552E-2
03/06/2025  21:45:38.565269	8.780836E-2
03/06/2025  21:45:38.565769	-4.293654E-4
03/06/2025  21:45:38.566269	-8.443429E-2
03/06/2025  21:45:38.566769	-1.433680E-1
03/06/2025  21:45:38.567269	-2.143489E-1
03/06/2025  21:45:38.567769	-2.622121E-1
03/06/2025  21:45:38.568269	-3.898475E-1
03/06/2025  21:45:38.568769	-4.246868E-1
03/06/2025  21:45:38.569269	-4.608284E-1
03/06/2025  21:45:38.569769	-5.262741E-1
03/06/2025  21:45:38.570269	-5.389725E-1
03/06/2025  21:45:38.570769	-6.193959E-1
03/06/2025  21:45:38.571269	-6.363271E-1
03/06/2025  21:45:38.571769	-6.731199E-1
03/06/2025  21:45:38.572269	-6.434903E-1
03/06/2025  21:45:38.572769	-6.744223E-1
03/06/2025  21:45:38.573269	-6.571655E-1
03/06/2025  21:45:38.573769	-6.604215E-1
03/06/2025  21:45:38.574269	-6.444671E-1
03/06/2025  21:45:38.574769	-6.109302E-1
03/06/2025  21:45:38.575269	-6.415367E-1
03/06/2025  21:45:38.575769	-5.966038E-1
03/06/2025  21:45:38.576269	-4.888301E-1
03/06/2025  21:45:38.576769	-4.546420E-1
03/06/2025  21:45:38.577269	-3.686835E-1
03/06/2025  21:45:38.577769	-3.263554E-1
03/06/2025  21:45:38.578269	-2.771898E-1
03/06/2025  21:45:38.578769	-1.970920E-1
03/06/2025  21:45:38.579269	-1.391352E-1
03/06/2025  21:45:38.579769	-4.210623E-2
03/06/2025  21:45:38.580269	2.218356E-4
03/06/2025  21:45:38.580769	3.636349E-2
03/06/2025  21:45:38.581269	6.892353E-2
03/06/2025  21:45:38.581769	9.106437E-2
03/06/2025  21:45:38.582269	7.413314E-2
03/06/2025  21:45:38.582769	8.292436E-2
03/06/2025  21:45:38.583269	8.194755E-2
03/06/2025  21:45:38.583769	6.273713E-2
03/06/2025  21:45:38.584269	1.311132E-1
03/06/2025  21:45:38.584769	3.799149E-2
03/06/2025  21:45:38.585269	2.301387E-2
03/06/2025  21:45:38.585769	-2.159340E-2
03/06/2025  21:45:38.586269	-9.094630E-2
03/06/2025  21:45:38.586769	-1.238319E-1
03/06/2025  21:45:38.587269	-1.843936E-1
03/06/2025  21:45:38.587769	-2.550489E-1
03/06/2025  21:45:38.588269	-3.152850E-1
03/06/2025  21:45:38.588769	-3.794283E-1
03/06/2025  21:45:38.589269	-5.259485E-1
03/06/2025  21:45:38.589769	-5.682766E-1
03/06/2025  21:45:38.590269	-6.050694E-1
03/06/2025  21:45:38.590769	-6.236287E-1
03/06/2025  21:45:38.591269	-5.718582E-1
03/06/2025  21:45:38.591769	-6.887488E-1
03/06/2025  21:45:38.592269	-7.287976E-1
03/06/2025  21:45:38.592769	-7.301000E-1
03/06/2025  21:45:38.593269	-7.082848E-1
03/06/2025  21:45:38.593769	-6.473975E-1
03/06/2025  21:45:38.594269	-6.483743E-1
03/06/2025  21:45:38.594769	-6.115814E-1
03/06/2025  21:45:38.595269	-5.855334E-1
03/06/2025  21:45:38.595769	-5.480894E-1
03/06/2025  21:45:38.596269	-4.741781E-1
03/06/2025  21:45:38.596769	-4.718988E-1
03/06/2025  21:45:38.597269	-4.048252E-1
03/06/2025  21:45:38.597769	-3.077962E-1
03/06/2025  21:45:38.598269	-2.830506E-1
03/06/2025  21:45:38.598769	-1.896032E-1
03/06/2025  21:45:38.599269	-1.489032E-1
03/06/2025  21:45:38.599769	-9.029510E-2
03/06/2025  21:45:38.600269	-5.024624E-2
03/06/2025  21:45:38.600769	8.097075E-2
03/06/2025  21:45:38.601269	8.292436E-2
03/06/2025  21:45:38.601769	1.145076E-1
03/06/2025  21:45:38.602269	1.372996E-1
03/06/2025  21:45:38.602769	1.509749E-1
03/06/2025  21:45:38.603269	1.382764E-1
03/06/2025  21:45:38.603769	4.678270E-2
03/06/2025  21:45:38.604269	3.734029E-2
03/06/2025  21:45:38.604769	3.766589E-2
03/06/2025  21:45:38.605269	-2.061659E-2
03/06/2025  21:45:38.605769	-1.573259E-2
03/06/2025  21:45:38.606269	-1.114591E-1
03/06/2025  21:45:38.606769	-1.681136E-1
03/06/2025  21:45:38.607269	-2.351873E-1
03/06/2025  21:45:38.607769	-2.830506E-1
03/06/2025  21:45:38.608269	-3.159362E-1
03/06/2025  21:45:38.608769	-3.804051E-1
03/06/2025  21:45:38.609269	-4.432460E-1
03/06/2025  21:45:38.609769	-5.054357E-1
03/06/2025  21:45:38.610269	-5.435310E-1
03/06/2025  21:45:38.610769	-6.581423E-1
03/06/2025  21:45:38.611269	-6.757247E-1
03/06/2025  21:45:38.611769	-7.053544E-1
03/06/2025  21:45:38.612269	-7.222856E-1
03/06/2025  21:45:38.612769	-6.594447E-1
03/06/2025  21:45:38.613269	-7.144712E-1
03/06/2025  21:45:38.613769	-6.793063E-1
03/06/2025  21:45:38.614269	-6.539095E-1
03/06/2025  21:45:38.614769	-6.242799E-1
03/06/2025  21:45:38.615269	-5.396237E-1
03/06/2025  21:45:38.615769	-5.139013E-1
03/06/2025  21:45:38.616269	-4.565956E-1
03/06/2025  21:45:38.616769	-3.931035E-1
03/06/2025  21:45:38.617269	-3.387283E-1
03/06/2025  21:45:38.617769	-3.380771E-1
03/06/2025  21:45:38.618269	-2.797946E-1
03/06/2025  21:45:38.618769	-2.166281E-1
03/06/2025  21:45:38.619269	-1.182967E-1
03/06/2025  21:45:38.619769	-9.871779E-3
03/06/2025  21:45:38.620269	-2.745420E-2
03/06/2025  21:45:38.620769	6.082644E-3
03/06/2025  21:45:38.621269	5.101551E-2
03/06/2025  21:45:38.621769	7.055154E-2
03/06/2025  21:45:38.622269	1.425092E-1
03/06/2025  21:45:38.622769	1.200428E-1
03/06/2025  21:45:38.623269	1.024604E-1
03/06/2025  21:45:38.623769	8.552916E-2
03/06/2025  21:45:38.624269	6.696993E-2
03/06/2025  21:45:38.624769	5.068991E-2
03/06/2025  21:45:38.625269	-4.340863E-2
03/06/2025  21:45:38.625769	-8.638789E-2
03/06/2025  21:45:38.626269	-1.241575E-1
03/06/2025  21:45:38.626769	-2.150001E-1
03/06/2025  21:45:38.627269	-2.553745E-1
03/06/2025  21:45:38.627769	-3.273322E-1
03/06/2025  21:45:38.628269	-3.696603E-1
03/06/2025  21:45:38.628769	-4.217564E-1
03/06/2025  21:45:38.629269	-4.354316E-1
03/06/2025  21:45:38.629769	-5.217157E-1
03/06/2025  21:45:38.630269	-5.614390E-1
03/06/2025  21:45:38.630769	-6.076742E-1
03/06/2025  21:45:38.631269	-6.571655E-1
03/06/2025  21:45:38.631769	-6.740967E-1
03/06/2025  21:45:38.632269	-7.825217E-1
03/06/2025  21:45:38.632769	-7.750329E-1
03/06/2025  21:45:38.633269	-7.398680E-1
03/06/2025  21:45:38.633769	-7.424728E-1
03/06/2025  21:45:38.634269	-6.783295E-1
03/06/2025  21:45:38.634769	-6.776783E-1
03/06/2025  21:45:38.635269	-6.555375E-1
03/06/2025  21:45:38.635769	-5.835798E-1
03/06/2025  21:45:38.636269	-4.543164E-1
03/06/2025  21:45:38.636769	-4.272916E-1
03/06/2025  21:45:38.637269	-3.725907E-1
03/06/2025  21:45:38.637769	-3.077962E-1
03/06/2025  21:45:38.638269	-2.488625E-1
03/06/2025  21:45:38.638769	-1.840680E-1
03/06/2025  21:45:38.639269	-1.772304E-1
03/06/2025  21:45:38.639769	-9.583030E-2
03/06/2025  21:45:38.640269	-1.117418E-2
03/06/2025  21:45:38.640769	1.096665E-2
03/06/2025  21:45:38.641269	1.040884E-1
03/06/2025  21:45:38.641769	5.882992E-2
03/06/2025  21:45:38.642269	1.070188E-1
03/06/2025  21:45:38.642769	1.096236E-1
03/06/2025  21:45:38.643269	8.292436E-2
03/06/2025  21:45:38.643769	1.213452E-1
03/06/2025  21:45:38.644269	9.334357E-2
03/06/2025  21:45:38.644769	5.394591E-2
03/06/2025  21:45:38.645269	2.757228E-2
03/06/2025  21:45:38.645769	-3.885022E-2
03/06/2025  21:45:38.646269	-1.700672E-1
03/06/2025  21:45:38.646769	-2.006737E-1
03/06/2025  21:45:38.647269	-2.504905E-1
03/06/2025  21:45:38.647769	-2.872834E-1
03/06/2025  21:45:38.648269	-3.003074E-1
03/06/2025  21:45:38.648769	-4.106860E-1
03/06/2025  21:45:38.649269	-4.819925E-1
03/06/2025  21:45:38.649769	-5.412517E-1
03/06/2025  21:45:38.650269	-5.682766E-1
03/06/2025  21:45:38.650769	-5.861846E-1
03/06/2025  21:45:38.651269	-6.242799E-1
03/06/2025  21:45:38.651769	-6.447927E-1
03/06/2025  21:45:38.652269	-6.643287E-1
03/06/2025  21:45:38.652769	-6.903768E-1
03/06/2025  21:45:38.653269	-7.701489E-1
03/06/2025  21:45:38.653769	-7.050288E-1
03/06/2025  21:45:38.654269	-6.910280E-1
03/06/2025  21:45:38.654769	-6.272103E-1
03/06/2025  21:45:38.655269	-6.259079E-1
03/06/2025  21:45:38.655769	-5.796726E-1
03/06/2025  21:45:38.656269	-5.015285E-1
03/06/2025  21:45:38.656769	-4.445484E-1
03/06/2025  21:45:38.657269	-3.852891E-1
03/06/2025  21:45:38.657769	-2.687242E-1
03/06/2025  21:45:38.658269	-2.345361E-1
03/06/2025  21:45:38.658769	-1.710440E-1
03/06/2025  21:45:38.659269	-1.248087E-1
03/06/2025  21:45:38.659769	-6.522386E-2
03/06/2025  21:45:38.660269	-1.540699E-2
03/06/2025  21:45:38.660769	-2.257020E-2
03/06/2025  21:45:38.661269	1.812986E-2
03/06/2025  21:45:38.661769	5.752752E-2
03/06/2025  21:45:38.662269	5.980672E-2
03/06/2025  21:45:38.662769	1.132052E-1
03/06/2025  21:45:38.663269	7.217954E-2
03/06/2025  21:45:38.663769	5.882992E-2
03/06/2025  21:45:38.664269	5.459711E-2
03/06/2025  21:45:38.664769	7.185394E-2
03/06/2025  21:45:38.665269	1.064105E-2
03/06/2025  21:45:38.665769	-2.647740E-2
03/06/2025  21:45:38.666269	-9.257430E-2
03/06/2025  21:45:38.666769	-1.671368E-1
03/06/2025  21:45:38.667269	-2.211865E-1
03/06/2025  21:45:38.667769	-3.471939E-1
03/06/2025  21:45:38.668269	-3.774747E-1
03/06/2025  21:45:38.668769	-4.178492E-1
03/06/2025  21:45:38.669269	-4.868765E-1
03/06/2025  21:45:38.669769	-4.881789E-1
03/06/2025  21:45:38.670269	-5.848822E-1
03/06/2025  21:45:38.670769	-6.379551E-1
03/06/2025  21:45:38.671269	-6.636775E-1
03/06/2025  21:45:38.671769	-6.858184E-1
03/06/2025  21:45:38.672269	-6.789807E-1
03/06/2025  21:45:38.672769	-6.936328E-1
03/06/2025  21:45:38.673269	-6.770271E-1
03/06/2025  21:45:38.673769	-6.701895E-1
03/06/2025  21:45:38.674269	-6.415367E-1
03/06/2025  21:45:38.674769	-6.874464E-1
03/06/2025  21:45:38.675269	-6.366527E-1
03/06/2025  21:45:38.675769	-5.803238E-1
03/06/2025  21:45:38.676269	-5.018541E-1
03/06/2025  21:45:38.676769	-3.732419E-1
03/06/2025  21:45:38.677269	-3.628227E-1
03/06/2025  21:45:38.677769	-3.169130E-1
03/06/2025  21:45:38.678269	-2.706778E-1
03/06/2025  21:45:38.678769	-2.042553E-1
03/06/2025  21:45:38.679269	-8.671349E-2
03/06/2025  21:45:38.679769	-3.852462E-2
03/06/2025  21:45:38.680269	1.198637E-3
03/06/2025  21:45:38.680769	3.050268E-2
03/06/2025  21:45:38.681269	7.738915E-2
03/06/2025  21:45:38.681769	-3.685370E-3
03/06/2025  21:45:38.682269	6.924914E-2
03/06/2025  21:45:38.682769	7.543554E-2
03/06/2025  21:45:38.683269	9.757638E-2
03/06/2025  21:45:38.683769	5.557392E-2
03/06/2025  21:45:38.684269	5.394591E-2
03/06/2025  21:45:38.684769	1.910666E-2
03/06/2025  21:45:38.685269	-1.731767E-3
03/06/2025  21:45:38.685769	-5.773505E-2
03/06/2025  21:45:38.686269	-6.522386E-2
03/06/2025  21:45:38.686769	-1.648576E-1
03/06/2025  21:45:38.687269	-2.153257E-1
03/06/2025  21:45:38.687769	-2.866322E-1
03/06/2025  21:45:38.688269	-3.494731E-1
03/06/2025  21:45:38.688769	-3.960339E-1
03/06/2025  21:45:38.689269	-5.051101E-1
03/06/2025  21:45:38.689769	-5.646950E-1
03/06/2025  21:45:38.690269	-5.923710E-1
03/06/2025  21:45:38.690769	-6.503279E-1
03/06/2025  21:45:38.691269	-6.415367E-1
03/06/2025  21:45:38.691769	-7.099128E-1
03/06/2025  21:45:38.692269	-7.160992E-1
03/06/2025  21:45:38.692769	-7.248904E-1
03/06/2025  21:45:38.693269	-6.617239E-1
03/06/2025  21:45:38.693769	-6.773527E-1
03/06/2025  21:45:38.694269	-6.552119E-1
03/06/2025  21:45:38.694769	-6.206983E-1
03/06/2025  21:45:38.695269	-5.933478E-1
03/06/2025  21:45:38.695769	-5.438566E-1
03/06/2025  21:45:38.696269	-5.386469E-1
03/06/2025  21:45:38.696769	-4.777597E-1
03/06/2025  21:45:38.697269	-3.748699E-1
03/06/2025  21:45:38.697769	-3.279834E-1
03/06/2025  21:45:38.698269	-2.641657E-1
03/06/2025  21:45:38.698769	-2.078369E-1
03/06/2025  21:45:38.699269	-1.423912E-1
03/06/2025  21:45:38.699769	-8.769029E-2
03/06/2025  21:45:38.700269	-2.387260E-2
03/06/2025  21:45:38.700769	6.403953E-2
03/06/2025  21:45:38.701269	1.040884E-1
03/06/2025  21:45:38.701769	1.177636E-1
03/06/2025  21:45:38.702269	1.395788E-1
03/06/2025  21:45:38.702769	1.444628E-1
03/06/2025  21:45:38.703269	5.231791E-2
03/06/2025  21:45:38.703769	5.296911E-2
03/06/2025  21:45:38.704269	4.971311E-2
03/06/2025  21:45:38.704769	1.878106E-2
03/06/2025  21:45:38.705269	6.371393E-2
03/06/2025  21:45:38.705769	-4.666463E-2
03/06/2025  21:45:38.706269	-1.264367E-1
03/06/2025  21:45:38.706769	-1.671368E-1
03/06/2025  21:45:38.707269	-2.430017E-1
03/06/2025  21:45:38.707769	-2.697010E-1
03/06/2025  21:45:38.708269	-3.465427E-1
03/06/2025  21:45:38.708769	-4.162212E-1
03/06/2025  21:45:38.709269	-4.692940E-1
03/06/2025  21:45:38.709769	-5.295301E-1
03/06/2025  21:45:38.710269	-6.441415E-1
03/06/2025  21:45:38.710769	-6.627007E-1
03/06/2025  21:45:38.711269	-6.985168E-1
03/06/2025  21:45:38.711769	-6.796319E-1
03/06/2025  21:45:38.712269	-7.301000E-1
03/06/2025  21:45:38.712769	-7.346584E-1
03/06/2025  21:45:38.713269	-7.242392E-1
03/06/2025  21:45:38.713769	-7.160992E-1
03/06/2025  21:45:38.714269	-6.910280E-1
03/06/2025  21:45:38.714769	-6.053950E-1
03/06/2025  21:45:38.715269	-5.868358E-1
03/06/2025  21:45:38.715769	-5.474382E-1
03/06/2025  21:45:38.716269	-4.780853E-1
03/06/2025  21:45:38.716769	-4.103604E-1
03/06/2025  21:45:38.717269	-3.481707E-1
03/06/2025  21:45:38.717769	-3.514267E-1
03/06/2025  21:45:38.718269	-2.762130E-1
03/06/2025  21:45:38.718769	-1.938360E-1
03/06/2025  21:45:38.719269	-1.570432E-1
03/06/2025  21:45:38.719769	-7.108467E-2
03/06/2025  21:45:38.720269	-5.317664E-2
03/06/2025  21:45:38.720769	8.036247E-3
03/06/2025  21:45:38.721269	4.841071E-2
03/06/2025  21:45:38.721769	1.275316E-1
03/06/2025  21:45:38.722269	1.324156E-1
03/06/2025  21:45:38.722769	1.379508E-1
03/06/2025  21:45:38.723269	1.265548E-1
03/06/2025  21:45:38.723769	1.076700E-1
03/06/2025  21:45:38.724269	8.390116E-2
03/06/2025  21:45:38.724769	-1.996539E-2
03/06/2025  21:45:38.725269	-2.647740E-2
03/06/2025  21:45:38.725769	-4.373423E-2
03/06/2025  21:45:38.726269	-1.466240E-1
03/06/2025  21:45:38.726769	-1.733232E-1
03/06/2025  21:45:38.727269	-2.381177E-1
03/06/2025  21:45:38.727769	-3.071450E-1
03/06/2025  21:45:38.728269	-3.631483E-1
03/06/2025  21:45:38.728769	-4.149188E-1
03/06/2025  21:45:38.729269	-4.484556E-1
03/06/2025  21:45:38.729769	-5.109709E-1
03/06/2025  21:45:38.730269	-5.539502E-1
03/06/2025  21:45:38.730769	-5.998598E-1
03/06/2025  21:45:38.731269	-6.434903E-1
03/06/2025  21:45:38.731769	-7.467056E-1
03/06/2025  21:45:38.732269	-7.483336E-1
03/06/2025  21:45:38.732769	-7.287976E-1
03/06/2025  21:45:38.733269	-7.307512E-1
03/06/2025  21:45:38.733769	-6.353503E-1
03/06/2025  21:45:38.734269	-6.890744E-1
03/06/2025  21:45:38.734769	-6.483743E-1
03/06/2025  21:45:38.735269	-6.122327E-1
03/06/2025  21:45:38.735769	-5.692534E-1
03/06/2025  21:45:38.736269	-4.663636E-1
03/06/2025  21:45:38.736769	-4.116628E-1
03/06/2025  21:45:38.737269	-3.540315E-1
03/06/2025  21:45:38.737769	-2.866322E-1
03/06/2025  21:45:38.738269	-2.273729E-1
03/06/2025  21:45:38.738769	-2.498393E-1
03/06/2025  21:45:38.739269	-1.589968E-1
03/06/2025  21:45:38.739769	-1.007143E-1
03/06/2025  21:45:38.740269	-1.638379E-2
03/06/2025  21:45:38.740769	1.145076E-1
03/06/2025  21:45:38.741269	6.013232E-2
03/06/2025  21:45:38.741769	7.022594E-2
03/06/2025  21:45:38.742269	1.050652E-1
03/06/2025  21:45:38.742769	1.092980E-1
03/06/2025  21:45:38.743269	1.206940E-1
03/06/2025  21:45:38.743769	9.790198E-2
03/06/2025  21:45:38.744269	7.380754E-2
03/06/2025  21:45:38.744769	3.831709E-2
03/06/2025  21:45:38.745269	9.338649E-3
03/06/2025  21:45:38.745769	-1.019738E-2
03/06/2025  21:45:38.746269	-1.580200E-1
03/06/2025  21:45:38.746769	-2.068601E-1
03/06/2025  21:45:38.747269	-2.387689E-1
03/06/2025  21:45:38.747769	-3.159362E-1
03/06/2025  21:45:38.748269	-3.348210E-1
03/06/2025  21:45:38.748769	-4.171980E-1
03/06/2025  21:45:38.749269	-4.930629E-1
03/06/2025  21:45:38.749769	-5.585086E-1
03/06/2025  21:45:38.750269	-5.376701E-1
03/06/2025  21:45:38.750769	-6.190703E-1
03/06/2025  21:45:38.751269	-6.571655E-1
03/06/2025  21:45:38.751769	-6.819112E-1
03/06/2025  21:45:38.752269	-7.157736E-1
03/06/2025  21:45:38.752769	-7.167504E-1
03/06/2025  21:45:38.753269	-7.815449E-1
03/06/2025  21:45:38.753769	-7.535433E-1
03/06/2025  21:45:38.754269	-6.962376E-1
03/06/2025  21:45:38.754769	-6.841904E-1
03/06/2025  21:45:38.755269	-6.213495E-1
03/06/2025  21:45:38.755769	-6.044182E-1
03/06/2025  21:45:38.756269	-5.275765E-1
03/06/2025  21:45:38.756769	-4.608284E-1
03/06/2025  21:45:38.757269	-3.644507E-1
03/06/2025  21:45:38.757769	-2.996562E-1
03/06/2025  21:45:38.758269	-2.312801E-1
03/06/2025  21:45:38.758769	-1.843936E-1
03/06/2025  21:45:38.759269	-1.173199E-1
03/06/2025  21:45:38.759769	-7.564307E-2
03/06/2025  21:45:38.760269	-8.052708E-2
03/06/2025  21:45:38.760769	-2.680300E-2
03/06/2025  21:45:38.761269	2.626987E-2
03/06/2025  21:45:38.761769	4.027069E-2
03/06/2025  21:45:38.762269	1.490213E-1
03/06/2025  21:45:38.762769	8.227315E-2
03/06/2025  21:45:38.763269	7.348194E-2
03/06/2025  21:45:38.763769	5.980672E-2
03/06/2025  21:45:38.764269	2.887468E-2
03/06/2025  21:45:38.764769	6.013232E-2
03/06/2025  21:45:38.765269	8.687448E-3
03/06/2025  21:45:38.765769	-3.950142E-2
03/06/2025  21:45:38.766269	-1.143895E-1
03/06/2025  21:45:38.766769	-1.658344E-1
03/06/2025  21:45:38.767269	-2.950978E-1
03/06/2025  21:45:38.767769	-3.357979E-1
03/06/2025  21:45:38.768269	-3.820331E-1
03/06/2025  21:45:38.768769	-4.162212E-1
03/06/2025  21:45:38.769269	-4.250124E-1
03/06/2025  21:45:38.769769	-5.614390E-1
03/06/2025  21:45:38.770269	-6.158143E-1
03/06/2025  21:45:38.770769	-6.317687E-1
03/06/2025  21:45:38.771269	-6.828880E-1
03/06/2025  21:45:38.771769	-6.555375E-1
03/06/2025  21:45:38.772269	-7.017728E-1
03/06/2025  21:45:38.772769	-7.226112E-1
03/06/2025  21:45:38.773269	-7.079592E-1
03/06/2025  21:45:38.773769	-6.864696E-1
03/06/2025  21:45:38.774269	-6.565143E-1
03/06/2025  21:45:38.774769	-6.822368E-1
03/06/2025  21:45:38.775269	-6.545607E-1
03/06/2025  21:45:38.775769	-5.878126E-1
03/06/2025  21:45:38.776269	-5.441822E-1
03/06/2025  21:45:38.776769	-4.679916E-1
03/06/2025  21:45:38.777269	-4.116628E-1
03/06/2025  21:45:38.777769	-3.276578E-1
03/06/2025  21:45:38.778269	-2.670962E-1
03/06/2025  21:45:38.778769	-1.287160E-1
03/06/2025  21:45:38.779269	-9.485350E-2
03/06/2025  21:45:38.779769	-3.950142E-2
03/06/2025  21:45:38.780269	8.687448E-3
03/06/2025  21:45:38.780769	5.166671E-2
03/06/2025  21:45:38.781269	9.627397E-2
03/06/2025  21:45:38.781769	5.622512E-2
03/06/2025  21:45:38.782269	9.985558E-2
03/06/2025  21:45:38.782769	1.376252E-1
03/06/2025  21:45:38.783269	7.608675E-2
03/06/2025  21:45:38.783769	1.320900E-1
03/06/2025  21:45:38.784269	8.422676E-2
03/06/2025  21:45:38.784769	6.013232E-2
03/06/2025  21:45:38.785269	2.561867E-2
03/06/2025  21:45:38.785769	4.938751E-2
03/06/2025  21:45:38.786269	-6.913106E-2
03/06/2025  21:45:38.786769	-1.290416E-1
03/06/2025  21:45:38.787269	-1.847192E-1
03/06/2025  21:45:38.787769	-2.553745E-1
03/06/2025  21:45:38.788269	-3.016098E-1
03/06/2025  21:45:38.788769	-4.331524E-1
03/06/2025  21:45:38.789269	-4.836205E-1
03/06/2025  21:45:38.789769	-5.204133E-1
03/06/2025  21:45:38.790269	-5.620902E-1
03/06/2025  21:45:38.790769	-5.516710E-1
03/06/2025  21:45:38.791269	-6.506535E-1
03/06/2025  21:45:38.791769	-6.604215E-1
03/06/2025  21:45:38.792269	-6.835392E-1
03/06/2025  21:45:38.792769	-6.796319E-1
03/06/2025  21:45:38.793269	-6.298151E-1
03/06/2025  21:45:38.793769	-6.158143E-1
03/06/2025  21:45:38.794269	-6.083254E-1
03/06/2025  21:45:38.794769	-5.757654E-1
03/06/2025  21:45:38.795269	-5.428798E-1
03/06/2025  21:45:38.795769	-5.676254E-1
03/06/2025  21:45:38.796269	-5.008773E-1
03/06/2025  21:45:38.796769	-4.240356E-1
03/06/2025  21:45:38.797269	-3.283090E-1
03/06/2025  21:45:38.797769	-2.166281E-1
03/06/2025  21:45:38.798269	-2.052321E-1
03/06/2025  21:45:38.798769	-1.537872E-1
03/06/2025  21:45:38.799269	-9.029510E-2
03/06/2025  21:45:38.799769	-4.308303E-2
03/06/2025  21:45:38.800269	4.515470E-2
03/06/2025  21:45:38.800769	5.882992E-2
03/06/2025  21:45:38.801269	1.060420E-1
03/06/2025  21:45:38.801769	1.236244E-1
03/06/2025  21:45:38.802269	1.529285E-1
03/06/2025  21:45:38.802769	5.394591E-2
03/06/2025  21:45:38.803269	8.455236E-2
03/06/2025  21:45:38.803769	8.650596E-2
03/06/2025  21:45:38.804269	8.064515E-2
03/06/2025  21:45:38.804769	3.473549E-2
03/06/2025  21:45:38.805269	2.073467E-2
03/06/2025  21:45:38.805769	-2.094220E-2
03/06/2025  21:45:38.806269	-8.280628E-2
03/06/2025  21:45:38.806769	-1.326232E-1
03/06/2025  21:45:38.807269	-1.410888E-1
03/06/2025  21:45:38.807769	-2.358385E-1
03/06/2025  21:45:38.808269	-2.801202E-1
03/06/2025  21:45:38.808769	-3.400307E-1
03/06/2025  21:45:38.809269	-4.087324E-1
03/06/2025  21:45:38.809769	-4.455252E-1
03/06/2025  21:45:38.810269	-5.448334E-1
03/06/2025  21:45:38.810769	-5.656718E-1
03/06/2025  21:45:38.811269	-5.796726E-1
03/06/2025  21:45:38.811769	-6.239543E-1
03/06/2025  21:45:38.812269	-6.119071E-1
03/06/2025  21:45:38.812769	-6.382807E-1
03/06/2025  21:45:38.813269	-6.340479E-1
03/06/2025  21:45:38.813769	-6.158143E-1
03/06/2025  21:45:38.814269	-5.425541E-1
03/06/2025  21:45:38.814769	-5.337629E-1
03/06/2025  21:45:38.815269	-4.976213E-1
03/06/2025  21:45:38.815769	-4.572468E-1
03/06/2025  21:45:38.816269	-3.804051E-1
03/06/2025  21:45:38.816769	-3.133314E-1
03/06/2025  21:45:38.817269	-3.214714E-1
03/06/2025  21:45:38.817769	-2.433273E-1
03/06/2025  21:45:38.818269	-1.462984E-1
03/06/2025  21:45:38.818769	-1.124359E-1
03/06/2025  21:45:38.819269	-1.406167E-3
03/06/2025  21:45:38.819769	8.687448E-3
03/06/2025  21:45:38.820269	6.078352E-2
03/06/2025  21:45:38.820769	9.692518E-2
03/06/2025  21:45:38.821269	1.454396E-1
03/06/2025  21:45:38.821769	2.001405E-1
03/06/2025  21:45:38.822269	2.239094E-1
03/06/2025  21:45:38.822769	2.206534E-1
03/06/2025  21:45:38.823269	2.099085E-1
03/06/2025  21:45:38.823769	1.845117E-1
03/06/2025  21:45:38.824269	1.145076E-1
03/06/2025  21:45:38.824769	8.618036E-2
03/06/2025  21:45:38.825269	6.827233E-2
03/06/2025  21:45:38.825769	2.692107E-2
03/06/2025  21:45:38.826269	2.366507E-2
03/06/2025  21:45:38.826769	-1.029935E-1
03/06/2025  21:45:38.827269	-1.612760E-1
03/06/2025  21:45:38.827769	-2.097905E-1
03/06/2025  21:45:38.828269	-2.739338E-1
03/06/2025  21:45:38.828769	-2.745850E-1
03/06/2025  21:45:38.829269	-3.504499E-1
03/06/2025  21:45:38.829769	-4.158956E-1
03/06/2025  21:45:38.830269	-4.689684E-1
03/06/2025  21:45:38.830769	-5.028309E-1
03/06/2025  21:45:38.831269	-6.161399E-1
03/06/2025  21:45:38.831769	-5.887894E-1
03/06/2025  21:45:38.832269	-6.197215E-1
03/06/2025  21:45:38.832769	-5.845566E-1
03/06/2025  21:45:38.833269	-6.008366E-1
03/06/2025  21:45:38.833769	-5.910686E-1
03/06/2025  21:45:38.834269	-5.633926E-1
03/06/2025  21:45:38.834769	-5.448334E-1
03/06/2025  21:45:38.835269	-4.985981E-1
03/06/2025  21:45:38.835769	-4.009179E-1
03/06/2025  21:45:38.836269	-3.511011E-1
03/06/2025  21:45:38.836769	-2.996562E-1
03/06/2025  21:45:38.837269	-2.426761E-1
03/06/2025  21:45:38.837769	-1.850448E-1
03/06/2025  21:45:38.838269	-1.199247E-1
03/06/2025  21:45:38.838769	-1.121103E-1
03/06/2025  21:45:38.839269	-5.545584E-2
03/06/2025  21:45:38.839769	2.496747E-2
03/06/2025  21:45:38.840269	4.580590E-2
03/06/2025  21:45:38.840769	1.399044E-1
03/06/2025  21:45:38.841269	1.565101E-1
03/06/2025  21:45:38.841769	1.809301E-1
03/06/2025  21:45:38.842269	2.050245E-1
03/06/2025  21:45:38.842769	2.633070E-1
03/06/2025  21:45:38.843269	2.170717E-1
03/06/2025  21:45:38.843769	2.060013E-1
03/06/2025  21:45:38.844269	1.864653E-1
03/06/2025  21:45:38.844769	1.493469E-1
03/06/2025  21:45:38.845269	1.193916E-1
03/06/2025  21:45:38.845769	1.357145E-2
03/06/2025  21:45:38.846269	-3.722222E-2
03/06/2025  21:45:38.846769	-8.964389E-2
03/06/2025  21:45:38.847269	-1.655088E-1
03/06/2025  21:45:38.847769	-2.120697E-1
03/06/2025  21:45:38.848269	-2.823994E-1
03/06/2025  21:45:38.848769	-3.598923E-1
03/06/2025  21:45:38.849269	-4.201284E-1
03/06/2025  21:45:38.849769	-4.761317E-1
03/06/2025  21:45:38.850269	-4.885045E-1
03/06/2025  21:45:38.850769	-5.516710E-1
03/06/2025  21:45:38.851269	-5.855334E-1
03/06/2025  21:45:38.851769	-6.171167E-1
03/06/2025  21:45:38.852269	-6.535839E-1
03/06/2025  21:45:38.852769	-7.125176E-1
03/06/2025  21:45:38.853269	-6.994936E-1
03/06/2025  21:45:38.853769	-6.806087E-1
03/06/2025  21:45:38.854269	-6.760503E-1
03/06/2025  21:45:38.854769	-5.568806E-1
03/06/2025  21:45:38.855269	-5.907430E-1
03/06/2025  21:45:38.855769	-5.513454E-1
03/06/2025  21:45:38.856269	-4.982725E-1
03/06/2025  21:45:38.856769	-4.256636E-1
03/06/2025  21:45:38.857269	-3.270066E-1
03/06/2025  21:45:38.857769	-2.742594E-1
03/06/2025  21:45:38.858269	-2.182561E-1
03/06/2025  21:45:38.858769	-1.482520E-1
03/06/2025  21:45:38.859269	-8.964389E-2
03/06/2025  21:45:38.859769	-1.085287E-1
03/06/2025  21:45:38.860269	-4.145502E-2
03/06/2025  21:45:38.860769	8.036247E-3
03/06/2025  21:45:38.861269	8.064515E-2
03/06/2025  21:45:38.861769	7.283074E-2
03/06/2025  21:45:38.862269	1.272060E-1
03/06/2025  21:45:38.862769	1.320900E-1
03/06/2025  21:45:38.863269	1.083212E-1
03/06/2025  21:45:38.863769	8.585476E-2
03/06/2025  21:45:38.864269	1.184148E-1
03/06/2025  21:45:38.864769	6.045792E-2
03/06/2025  21:45:38.865269	2.464187E-2
03/06/2025  21:45:38.865769	-3.331501E-2
03/06/2025  21:45:38.866269	-9.387670E-2
03/06/2025  21:45:38.866769	-1.401120E-1
03/06/2025  21:45:38.867269	-2.745850E-1
03/06/2025  21:45:38.867769	-3.191922E-1
03/06/2025  21:45:38.868269	-3.615203E-1
03/06/2025  21:45:38.868769	-4.533396E-1
03/06/2025  21:45:38.869269	-4.777597E-1
03/06/2025  21:45:38.869769	-5.650206E-1
03/06/2025  21:45:38.870269	-5.897662E-1
03/06/2025  21:45:38.870769	-6.467463E-1
03/06/2025  21:45:38.871269	-6.239543E-1
03/06/2025  21:45:38.871769	-6.894000E-1
03/06/2025  21:45:38.872269	-7.092616E-1
03/06/2025  21:45:38.872769	-7.131688E-1
03/06/2025  21:45:38.873269	-7.014472E-1
03/06/2025  21:45:38.873769	-6.854928E-1
03/06/2025  21:45:38.874269	-7.427984E-1
03/06/2025  21:45:38.874769	-7.121920E-1
03/06/2025  21:45:38.875269	-6.483743E-1
03/06/2025  21:45:38.875769	-6.272103E-1
03/06/2025  21:45:38.876269	-5.301813E-1
03/06/2025  21:45:38.876769	-4.881789E-1
03/06/2025  21:45:38.877269	-4.204540E-1
03/06/2025  21:45:38.877769	-3.484963E-1
03/06/2025  21:45:38.878269	-2.791434E-1
03/06/2025  21:45:38.878769	-1.782072E-1
03/06/2025  21:45:38.879269	-1.192735E-1
03/06/2025  21:45:38.879769	-5.415344E-2
03/06/2025  21:45:38.880269	-2.777980E-2
03/06/2025  21:45:38.880769	2.985148E-2
03/06/2025  21:45:38.881269	-3.034169E-3
03/06/2025  21:45:38.881769	4.092189E-2
03/06/2025  21:45:38.882269	7.315634E-2
03/06/2025  21:45:38.882769	7.576114E-2
03/06/2025  21:45:38.883269	1.454396E-1
03/06/2025  21:45:38.883769	4.743390E-2
03/06/2025  21:45:38.884269	4.417790E-2
03/06/2025  21:45:38.884769	1.519946E-2
03/06/2025  21:45:38.885269	-1.182538E-2
03/06/2025  21:45:38.885769	-1.573259E-2
03/06/2025  21:45:38.886269	-9.583030E-2
03/06/2025  21:45:38.886769	-1.664856E-1
03/06/2025  21:45:38.887269	-2.110929E-1
03/06/2025  21:45:38.887769	-2.876090E-1
03/06/2025  21:45:38.888269	-4.074300E-1
03/06/2025  21:45:38.888769	-4.640844E-1
03/06/2025  21:45:38.889269	-5.125989E-1
03/06/2025  21:45:38.889769	-5.275765E-1
03/06/2025  21:45:38.890269	-4.995749E-1
03/06/2025  21:45:38.890769	-6.311175E-1
03/06/2025  21:45:38.891269	-6.666079E-1
03/06/2025  21:45:38.891769	-6.916792E-1
03/06/2025  21:45:38.892269	-7.102384E-1
03/06/2025  21:45:38.892769	-6.841904E-1
03/06/2025  21:45:38.893269	-7.030752E-1
03/06/2025  21:45:38.893769	-6.985168E-1
03/06/2025  21:45:38.894269	-6.734455E-1
03/06/2025  21:45:38.894769	-6.412111E-1
03/06/2025  21:45:38.895269	-5.923710E-1
03/06/2025  21:45:38.895769	-6.132095E-1
03/06/2025  21:45:38.896269	-5.445078E-1
03/06/2025  21:45:38.896769	-4.491068E-1
03/06/2025  21:45:38.897269	-4.041739E-1
03/06/2025  21:45:38.897769	-3.113778E-1
03/06/2025  21:45:38.898269	-2.970514E-1
03/06/2025  21:45:38.898769	-2.202097E-1
03/06/2025  21:45:38.899269	-1.629040E-1
03/06/2025  21:45:38.899769	-2.745420E-2
03/06/2025  21:45:38.900269	-1.768619E-2
03/06/2025  21:45:38.900769	1.617626E-2
03/06/2025  21:45:38.901269	3.734029E-2
03/06/2025  21:45:38.901769	6.013232E-2
03/06/2025  21:45:38.902269	1.073444E-1
03/06/2025  21:45:38.902769	3.766589E-2
03/06/2025  21:45:38.903269	2.920028E-2
03/06/2025  21:45:38.903769	3.310748E-2
03/06/2025  21:45:38.904269	-6.290174E-3
03/06/2025  21:45:38.904769	-1.638379E-2
03/06/2025  21:45:38.905269	-6.978227E-2
03/06/2025  21:45:38.905769	-1.095055E-1
03/06/2025  21:45:38.906269	-1.703928E-1
03/06/2025  21:45:38.906769	-2.423505E-1
03/06/2025  21:45:38.907269	-2.752362E-1
03/06/2025  21:45:38.907769	-3.546827E-1
03/06/2025  21:45:38.908269	-4.321756E-1
03/06/2025  21:45:38.908769	-4.933885E-1
03/06/2025  21:45:38.909269	-5.819518E-1
03/06/2025  21:45:38.909769	-7.151224E-1
03/06/2025  21:45:38.910269	-7.447520E-1
03/06/2025  21:45:38.910769	-7.978249E-1
03/06/2025  21:45:38.911269	-8.427578E-1
03/06/2025  21:45:38.911769	-8.062905E-1
03/06/2025  21:45:38.912269	-9.231811E-1
03/06/2025  21:45:38.912769	-9.309955E-1
03/06/2025  21:45:38.913269	-9.358795E-1
03/06/2025  21:45:38.913769	-9.254603E-1
03/06/2025  21:45:38.914269	-8.613170E-1
03/06/2025  21:45:38.914769	-8.489442E-1
03/06/2025  21:45:38.915269	-8.355946E-1
03/06/2025  21:45:38.915769	-7.877313E-1
03/06/2025  21:45:38.916269	-7.294488E-1
03/06/2025  21:45:38.916769	-7.255416E-1
03/06/2025  21:45:38.917269	-6.594447E-1
03/06/2025  21:45:38.917769	-5.770678E-1
03/06/2025  21:45:38.918269	-4.872021E-1
03/06/2025  21:45:38.918769	-3.387283E-1
03/06/2025  21:45:38.919269	-3.455659E-1
03/06/2025  21:45:38.919769	-2.856554E-1
03/06/2025  21:45:38.920269	-2.377921E-1
03/06/2025  21:45:38.920769	-1.922080E-1
03/06/2025  21:45:38.921269	-1.095055E-1
03/06/2025  21:45:38.921769	-1.082031E-1
03/06/2025  21:45:38.922269	-5.708385E-2
03/06/2025  21:45:38.922769	-3.494302E-2
03/06/2025  21:45:38.923269	-3.624542E-2
03/06/2025  21:45:38.923769	-1.117418E-2
03/06/2025  21:45:38.924269	-6.033985E-2
03/06/2025  21:45:38.924769	-3.982702E-2
03/06/2025  21:45:38.925269	5.105843E-3
03/06/2025  21:45:38.925769	-1.963979E-2
03/06/2025  21:45:38.926269	-2.257020E-2
03/06/2025  21:45:38.926769	-4.699023E-2
03/06/2025  21:45:38.927269	-6.750306E-2
03/06/2025  21:45:38.927769	-8.345749E-2
03/06/2025  21:45:38.928269	-2.973341E-2
03/06/2025  21:45:38.928769	-7.629428E-2
03/06/2025  21:45:38.929269	-7.108467E-2
03/06/2025  21:45:38.929769	-5.675825E-2
03/06/2025  21:45:38.930269	-1.508139E-2
03/06/2025  21:45:38.930769	1.910666E-2
03/06/2025  21:45:38.931269	3.961949E-2
03/06/2025  21:45:38.931769	1.112516E-1
03/06/2025  21:45:38.932269	1.906981E-1
03/06/2025  21:45:38.932769	2.213046E-1
03/06/2025  21:45:38.933269	3.622896E-1
03/06/2025  21:45:38.933769	4.267585E-1
03/06/2025  21:45:38.934269	5.524402E-1
03/06/2025  21:45:38.934769	6.664004E-1
03/06/2025  21:45:38.935269	8.558999E-1
03/06/2025  21:45:38.935769	9.513008E-1
03/06/2025  21:45:38.936269	1.109868E+0
03/06/2025  21:45:38.936769	1.260296E+0
03/06/2025  21:45:38.937269	1.399001E+0
03/06/2025  21:45:38.937769	1.560174E+0
03/06/2025  21:45:38.938269	1.644830E+0
03/06/2025  21:45:38.938769	1.792652E+0
03/06/2025  21:45:38.939269	1.951220E+0
03/06/2025  21:45:38.939769	2.093507E+0
03/06/2025  21:45:38.940269	2.249795E+0
03/06/2025  21:45:38.940769	2.298636E+0
03/06/2025  21:45:38.941269	2.390455E+0
03/06/2025  21:45:38.941769	2.469576E+0
03/06/2025  21:45:38.942269	2.569861E+0
03/06/2025  21:45:38.942769	2.702055E+0
03/06/2025  21:45:38.943269	2.764570E+0
03/06/2025  21:45:38.943769	2.860948E+0
03/06/2025  21:45:38.944269	2.929649E+0
03/06/2025  21:45:38.944769	2.993793E+0
03/06/2025  21:45:38.945269	2.959605E+0
03/06/2025  21:45:38.945769	2.954069E+0
03/06/2025  21:45:38.946269	2.933882E+0
03/06/2025  21:45:38.946769	2.912067E+0
03/06/2025  21:45:38.947269	2.905555E+0
03/06/2025  21:45:38.947769	2.769128E+0
03/06/2025  21:45:38.948269	2.686751E+0
03/06/2025  21:45:38.948769	2.573117E+0
03/06/2025  21:45:38.949269	2.469576E+0
03/06/2025  21:45:38.949769	2.396316E+0
03/06/2025  21:45:38.950269	2.272913E+0
03/06/2025  21:45:38.950769	2.174582E+0
03/06/2025  21:45:38.951269	2.050528E+0
03/06/2025  21:45:38.951769	1.925172E+0
03/06/2025  21:45:38.952269	1.693995E+0
03/06/2025  21:45:38.952769	1.662738E+0
03/06/2025  21:45:38.953269	1.595664E+0
03/06/2025  21:45:38.953769	1.575803E+0
03/06/2025  21:45:38.954269	1.485611E+0
03/06/2025  21:45:38.954769	1.450772E+0
03/06/2025  21:45:38.955269	1.412351E+0
03/06/2025  21:45:38.955769	1.366441E+0
03/06/2025  21:45:38.956269	1.342347E+0
03/06/2025  21:45:38.956769	1.375558E+0
03/06/2025  21:45:38.957269	1.313043E+0
03/06/2025  21:45:38.957769	1.304577E+0
03/06/2025  21:45:38.958269	1.284716E+0
03/06/2025  21:45:38.958769	1.258993E+0
03/06/2025  21:45:38.959269	1.245644E+0
03/06/2025  21:45:38.959769	1.172058E+0
03/06/2025  21:45:38.960269	1.163918E+0
03/06/2025  21:45:38.960769	1.144382E+0
03/06/2025  21:45:38.961269	1.079913E+0
03/06/2025  21:45:38.961769	1.059075E+0
03/06/2025  21:45:38.962269	9.727904E-1
03/06/2025  21:45:38.962769	8.757615E-1
03/06/2025  21:45:38.963269	7.282645E-1
03/06/2025  21:45:38.963769	6.917972E-1
03/06/2025  21:45:38.964269	5.687203E-1
03/06/2025  21:45:38.964769	4.905761E-1
03/06/2025  21:45:38.965269	4.036408E-1
03/06/2025  21:45:38.965769	3.170311E-1
03/06/2025  21:45:38.966269	2.460502E-1
03/06/2025  21:45:38.966769	1.141820E-1
03/06/2025  21:45:38.967269	5.394591E-2
03/06/2025  21:45:38.967769	-1.768619E-2
03/06/2025  21:45:38.968269	-8.443429E-2
03/06/2025  21:45:38.968769	-9.908631E-2
03/06/2025  21:45:38.969269	-2.286753E-1
03/06/2025  21:45:38.969769	-2.970514E-1
03/06/2025  21:45:38.970269	-3.475195E-1
03/06/2025  21:45:38.970769	-3.804051E-1
03/06/2025  21:45:38.971269	-4.054764E-1
03/06/2025  21:45:38.971769	-4.357572E-1
03/06/2025  21:45:38.972269	-5.008773E-1
03/06/2025  21:45:38.972769	-5.301813E-1
03/06/2025  21:45:38.973269	-5.357165E-1
03/06/2025  21:45:38.973769	-5.953014E-1
03/06/2025  21:45:38.974269	-5.839054E-1
03/06/2025  21:45:38.974769	-5.474382E-1
03/06/2025  21:45:38.975269	-5.073893E-1
03/06/2025  21:45:38.975769	-4.162212E-1
03/06/2025  21:45:38.976269	-4.064532E-1
03/06/2025  21:45:38.976769	-3.397051E-1
03/06/2025  21:45:38.977269	-3.022610E-1
03/06/2025  21:45:38.977769	-2.436529E-1
03/06/2025  21:45:38.978269	-1.430424E-1
03/06/2025  21:45:38.978769	-9.192310E-2
03/06/2025  21:45:38.979269	-1.703499E-2
03/06/2025  21:45:38.979769	3.994509E-2
03/06/2025  21:45:38.980269	9.692518E-2
03/06/2025  21:45:38.980769	7.055154E-2
03/06/2025  21:45:38.981269	1.363228E-1
03/06/2025  21:45:38.981769	1.672549E-1
03/06/2025  21:45:38.982269	2.307470E-1
03/06/2025  21:45:38.982769	1.877677E-1
03/06/2025  21:45:38.983269	2.069781E-1
03/06/2025  21:45:38.983769	1.779997E-1
03/06/2025  21:45:38.984269	1.607429E-1
03/06/2025  21:45:38.984769	1.190660E-1
03/06/2025  21:45:38.985269	1.496725E-1
03/06/2025  21:45:38.985769	6.208593E-2
03/06/2025  21:45:38.986269	-1.312778E-2
03/06/2025  21:45:38.986769	-6.815426E-2
03/06/2025  21:45:38.987269	-1.218783E-1
03/06/2025  21:45:38.987769	-1.756024E-1
03/06/2025  21:45:38.988269	-2.856554E-1
03/06/2025  21:45:38.988769	-3.341698E-1
03/06/2025  21:45:38.989269	-3.924523E-1
03/06/2025  21:45:38.989769	-4.735268E-1
03/06/2025  21:45:38.990269	-4.689684E-1
03/06/2025  21:45:38.990769	-5.477638E-1
03/06/2025  21:45:38.991269	-5.650206E-1
03/06/2025  21:45:38.991769	-6.096278E-1
03/06/2025  21:45:38.992269	-5.917198E-1
03/06/2025  21:45:38.992769	-6.259079E-1
03/06/2025  21:45:38.993269	-6.291639E-1
03/06/2025  21:45:38.993769	-6.106046E-1
03/06/2025  21:45:38.994269	-5.939990E-1
03/06/2025  21:45:38.994769	-5.432054E-1
03/06/2025  21:45:38.995269	-5.865102E-1
03/06/2025  21:45:38.995769	-5.344141E-1
03/06/2025  21:45:38.996269	-4.520372E-1
03/06/2025  21:45:38.996769	-4.077556E-1
03/06/2025  21:45:38.997269	-3.283090E-1
03/06/2025  21:45:38.997769	-2.843530E-1
03/06/2025  21:45:38.998269	-2.293265E-1
03/06/2025  21:45:38.998769	-1.609504E-1
03/06/2025  21:45:38.999269	-9.257430E-2
03/06/2025  21:45:38.999769	9.664249E-3
03/06/2025  21:45:39.000269	2.138587E-2
03/06/2025  21:45:39.000769	7.901715E-2
03/06/2025  21:45:39.001269	1.044140E-1
03/06/2025  21:45:39.001769	1.187404E-1
03/06/2025  21:45:39.002269	1.024604E-1
03/06/2025  21:45:39.002769	9.464597E-2
03/06/2025  21:45:39.003269	9.041317E-2
03/06/2025  21:45:39.003769	6.892353E-2
03/06/2025  21:45:39.004269	1.314388E-1
03/06/2025  21:45:39.004769	4.157310E-2
03/06/2025  21:45:39.005269	8.361847E-3
03/06/2025  21:45:39.005769	-3.396621E-2
03/06/2025  21:45:39.006269	-1.033191E-1
03/06/2025  21:45:39.006769	-1.293672E-1
03/06/2025  21:45:39.007269	-2.071857E-1
03/06/2025  21:45:39.007769	-2.693754E-1
03/06/2025  21:45:39.008269	-3.198434E-1
03/06/2025  21:45:39.008769	-3.797539E-1
03/06/2025  21:45:39.009269	-5.243205E-1
03/06/2025  21:45:39.009769	-5.389725E-1
03/06/2025  21:45:39.010269	-6.014878E-1
03/06/2025  21:45:39.010769	-5.992086E-1
03/06/2025  21:45:39.011269	-6.753991E-1
03/06/2025  21:45:39.011769	-6.780039E-1
03/06/2025  21:45:39.012269	-7.108896E-1
03/06/2025  21:45:39.012769	-7.177272E-1
03/06/2025  21:45:39.013269	-7.076336E-1
03/06/2025  21:45:39.013769	-6.389319E-1
03/06/2025  21:45:39.014269	-6.333967E-1
03/06/2025  21:45:39.014769	-6.158143E-1
03/06/2025  21:45:39.015269	-5.855334E-1
03/06/2025  21:45:39.015769	-5.305069E-1
03/06/2025  21:45:39.016269	-4.640844E-1
03/06/2025  21:45:39.016769	-4.836205E-1
03/06/2025  21:45:39.017269	-3.947315E-1
03/06/2025  21:45:39.017769	-2.876090E-1
03/06/2025  21:45:39.018269	-2.628633E-1
03/06/2025  21:45:39.018769	-1.560664E-1
03/06/2025  21:45:39.019269	-1.160175E-1
03/06/2025  21:45:39.019769	-5.675825E-2
03/06/2025  21:45:39.020269	-2.517500E-2
03/06/2025  21:45:39.020769	7.315634E-2
03/06/2025  21:45:39.021269	8.878516E-2
03/06/2025  21:45:39.021769	1.079956E-1
03/06/2025  21:45:39.022269	1.291596E-1
03/06/2025  21:45:39.022769	1.421836E-1
03/06/2025  21:45:39.023269	1.314388E-1
03/06/2025  21:45:39.023769	6.338833E-2
03/06/2025  21:45:39.024269	4.906191E-2
03/06/2025  21:45:39.024769	3.408428E-2
03/06/2025  21:45:39.025269	7.059445E-3
03/06/2025  21:45:39.025769	-1.833739E-2
03/06/2025  21:45:39.026269	-1.042959E-1
03/06/2025  21:45:39.026769	-1.687648E-1
03/06/2025  21:45:39.027269	-2.153257E-1
03/06/2025  21:45:39.027769	-2.752362E-1
03/06/2025  21:45:39.028269	-3.051914E-1
03/06/2025  21:45:39.028769	-3.722651E-1
03/06/2025  21:45:39.029269	-4.438972E-1
03/06/2025  21:45:39.029769	-4.992493E-1
03/06/2025  21:45:39.030269	-5.572062E-1
03/06/2025  21:45:39.030769	-6.643287E-1
03/06/2025  21:45:39.031269	-7.102384E-1
03/06/2025  21:45:39.031769	-7.076336E-1
03/06/2025  21:45:39.032269	-7.320536E-1
03/06/2025  21:45:39.032769	-6.587935E-1
03/06/2025  21:45:39.033269	-7.362864E-1
03/06/2025  21:45:39.033769	-7.014472E-1
03/06/2025  21:45:39.034269	-6.600959E-1
03/06/2025  21:45:39.034769	-6.467463E-1
03/06/2025  21:45:39.035269	-5.799982E-1
03/06/2025  21:45:39.035769	-5.392981E-1
03/06/2025  21:45:39.036269	-4.614796E-1
03/06/2025  21:45:39.036769	-4.054764E-1
03/06/2025  21:45:39.037269	-3.348210E-1
03/06/2025  21:45:39.037769	-3.624971E-1
03/06/2025  21:45:39.038269	-2.654681E-1
03/06/2025  21:45:39.038769	-1.983945E-1
03/06/2025  21:45:39.039269	-9.680710E-2
03/06/2025  21:45:39.039769	3.278188E-2
03/06/2025  21:45:39.040269	-1.080566E-3
03/06/2025  21:45:39.040769	2.789788E-2
03/06/2025  21:45:39.041269	7.641235E-2
03/06/2025  21:45:39.041769	9.725078E-2
03/06/2025  21:45:39.042269	1.897213E-1
03/06/2025  21:45:39.042769	1.724645E-1
03/06/2025  21:45:39.043269	1.760461E-1
03/06/2025  21:45:39.043769	1.454396E-1
03/06/2025  21:45:39.044269	1.180892E-1
03/06/2025  21:45:39.044769	9.790198E-2
03/06/2025  21:45:39.045269	5.757044E-3
03/06/2025  21:45:39.045769	-4.340863E-2
03/06/2025  21:45:39.046269	-7.434067E-2
03/06/2025  21:45:39.046769	-1.655088E-1
03/06/2025  21:45:39.047269	-1.749512E-1
03/06/2025  21:45:39.047769	-2.687242E-1
03/06/2025  21:45:39.048269	-3.341698E-1
03/06/2025  21:45:39.048769	-3.996155E-1
03/06/2025  21:45:39.049269	-3.895219E-1
03/06/2025  21:45:39.049769	-4.839461E-1
03/06/2025  21:45:39.050269	-5.285533E-1
03/06/2025  21:45:39.050769	-5.747886E-1
03/06/2025  21:45:39.051269	-6.132095E-1
03/06/2025  21:45:39.051769	-6.291639E-1
03/06/2025  21:45:39.052269	-7.268440E-1
03/06/2025  21:45:39.052769	-7.219600E-1
03/06/2025  21:45:39.053269	-6.832136E-1
03/06/2025  21:45:39.053769	-6.656311E-1
03/06/2025  21:45:39.054269	-6.184191E-1
03/06/2025  21:45:39.054769	-6.281871E-1
03/06/2025  21:45:39.055269	-5.878126E-1
03/06/2025  21:45:39.055769	-5.445078E-1
03/06/2025  21:45:39.056269	-4.569212E-1
03/06/2025  21:45:39.056769	-3.683579E-1
03/06/2025  21:45:39.057269	-3.084474E-1
03/06/2025  21:45:39.057769	-2.508161E-1
03/06/2025  21:45:39.058269	-1.944872E-1
03/06/2025  21:45:39.058769	-1.160175E-1
03/06/2025  21:45:39.059269	-1.371816E-1
03/06/2025  21:45:39.059769	-5.415344E-2
03/06/2025  21:45:39.060269	9.989850E-3
03/06/2025  21:45:39.060769	5.817872E-2
03/06/2025  21:45:39.061269	1.597661E-1
03/06/2025  21:45:39.061769	1.060420E-1
03/06/2025  21:45:39.062269	1.499981E-1
03/06/2025  21:45:39.062769	1.519517E-1
03/06/2025  21:45:39.063269	1.359972E-1
03/06/2025  21:45:39.063769	1.636733E-1
03/06/2025  21:45:39.064269	1.314388E-1
03/06/2025  21:45:39.064769	9.594837E-2
03/06/2025  21:45:39.065269	6.924914E-2
03/06/2025  21:45:39.065769	1.910666E-2
03/06/2025  21:45:39.066269	-9.973751E-2
03/06/2025  21:45:39.066769	-1.573688E-1
03/06/2025  21:45:39.067269	-2.140233E-1
03/06/2025  21:45:39.067769	-2.472345E-1
03/06/2025  21:45:39.068269	-2.443041E-1
03/06/2025  21:45:39.068769	-3.605435E-1
03/06/2025  21:45:39.069269	-4.468276E-1
03/06/2025  21:45:39.069769	-4.793877E-1
03/06/2025  21:45:39.070269	-5.340885E-1
03/06/2025  21:45:39.070769	-5.168317E-1
03/06/2025  21:45:39.071269	-5.839054E-1
03/06/2025  21:45:39.071769	-6.044182E-1
03/06/2025  21:45:39.072269	-6.294895E-1
03/06/2025  21:45:39.072769	-6.307919E-1
03/06/2025  21:45:39.073269	-6.115814E-1
03/06/2025  21:45:39.073769	-6.727943E-1
03/06/2025  21:45:39.074269	-6.337223E-1
03/06/2025  21:45:39.074769	-5.682766E-1
03/06/2025  21:45:39.075269	-5.519966E-1
03/06/2025  21:45:39.075769	-5.210645E-1
03/06/2025  21:45:39.076269	-4.539908E-1
03/06/2025  21:45:39.076769	-3.729163E-1
03/06/2025  21:45:39.077269	-3.107266E-1
03/06/2025  21:45:39.077769	-1.876496E-1
03/06/2025  21:45:39.078269	-1.440192E-1
03/06/2025  21:45:39.078769	-9.973751E-2
03/06/2025  21:45:39.079269	-3.038461E-2
03/06/2025  21:45:39.079769	1.910666E-2
03/06/2025  21:45:39.080269	8.194755E-2
03/06/2025  21:45:39.080769	6.273713E-2
03/06/2025  21:45:39.081269	1.161356E-1
03/06/2025  21:45:39.081769	1.568357E-1
03/06/2025  21:45:39.082269	1.578125E-1
03/06/2025  21:45:39.082769	2.141413E-1
03/06/2025  21:45:39.083269	1.806045E-1
03/06/2025  21:45:39.083769	1.584637E-1
03/06/2025  21:45:39.084269	1.493469E-1
03/06/2025  21:45:39.084769	1.874421E-1
03/06/2025  21:45:39.085269	1.050652E-1
03/06/2025  21:45:39.085769	6.664433E-2
03/06/2025  21:45:39.086269	-4.293654E-4
03/06/2025  21:45:39.086769	-5.708385E-2
03/06/2025  21:45:39.087269	-1.248087E-1
03/06/2025  21:45:39.087769	-2.560257E-1
03/06/2025  21:45:39.088269	-2.807714E-1
03/06/2025  21:45:39.088769	-3.390539E-1
03/06/2025  21:45:39.089269	-4.090580E-1
03/06/2025  21:45:39.089769	-4.028715E-1
03/06/2025  21:45:39.090269	-4.956677E-1
03/06/2025  21:45:39.090769	-5.259485E-1
03/06/2025  21:45:39.091269	-5.907430E-1
03/06/2025  21:45:39.091769	-5.982318E-1
03/06/2025  21:45:39.092269	-5.757654E-1
03/06/2025  21:45:39.092769	-6.060462E-1
03/06/2025  21:45:39.093269	-5.907430E-1
03/06/2025  21:45:39.093769	-5.806494E-1
03/06/2025  21:45:39.094269	-5.653462E-1
03/06/2025  21:45:39.094769	-5.904174E-1
03/06/2025  21:45:39.095269	-5.637182E-1
03/06/2025  21:45:39.095769	-4.979469E-1
03/06/2025  21:45:39.096269	-4.162212E-1
03/06/2025  21:45:39.096769	-2.837018E-1
03/06/2025  21:45:39.097269	-2.889114E-1
03/06/2025  21:45:39.097769	-2.260705E-1
03/06/2025  21:45:39.098269	-1.648576E-1
03/06/2025  21:45:39.098769	-1.026679E-1
03/06/2025  21:45:39.099269	8.687448E-3
03/06/2025  21:45:39.099769	7.217954E-2
03/06/2025  21:45:39.100269	1.024604E-1
03/06/2025  21:45:39.100769	1.451140E-1
03/06/2025  21:45:39.101269	1.906981E-1
03/06/2025  21:45:39.101769	1.073444E-1
03/06/2025  21:45:39.102269	1.701853E-1
03/06/2025  21:45:39.102769	1.968845E-1
03/06/2025  21:45:39.103269	1.998149E-1
03/06/2025  21:45:39.103769	1.858141E-1
03/06/2025  21:45:39.104269	1.613941E-1
03/06/2025  21:45:39.104769	1.428348E-1
03/06/2025  21:45:39.105269	1.083212E-1
03/06/2025  21:45:39.105769	5.850432E-2
03/06/2025  21:45:39.106269	5.948112E-2
03/06/2025  21:45:39.106769	-1.996539E-2
03/06/2025  21:45:39.107269	-8.541109E-2
03/06/2025  21:45:39.107769	-1.394608E-1
03/06/2025  21:45:39.108269	-1.970920E-1
03/06/2025  21:45:39.108769	-2.420249E-1
03/06/2025  21:45:39.109269	-3.732419E-1
03/06/2025  21:45:39.109769	-4.341292E-1
03/06/2025  21:45:39.110269	-4.549676E-1
03/06/2025  21:45:39.110769	-5.259485E-1
03/06/2025  21:45:39.111269	-5.116221E-1
03/06/2025  21:45:39.111769	-5.529734E-1
03/06/2025  21:45:39.112269	-5.751142E-1
03/06/2025  21:45:39.112769	-5.783702E-1
03/06/2025  21:45:39.113269	-4.842717E-1
03/06/2025  21:45:39.113769	-5.070637E-1
03/06/2025  21:45:39.114269	-4.696196E-1
03/06/2025  21:45:39.114769	-4.491068E-1
03/06/2025  21:45:39.115269	-4.123140E-1
03/06/2025  21:45:39.115769	-3.628227E-1
03/06/2025  21:45:39.116269	-3.553339E-1
03/06/2025  21:45:39.116769	-2.934698E-1
03/06/2025  21:45:39.117269	-1.957896E-1
03/06/2025  21:45:39.117769	-1.502056E-1
03/06/2025  21:45:39.118269	-4.405983E-2
03/06/2025  21:45:39.118769	-2.875661E-2
03/06/2025  21:45:39.119269	4.613150E-2
03/06/2025  21:45:39.119769	1.106004E-1
03/06/2025  21:45:39.120269	1.379508E-1
03/06/2025  21:45:39.120769	2.294446E-1
03/06/2025  21:45:39.121269	2.597254E-1
03/06/2025  21:45:39.121769	2.838198E-1
03/06/2025  21:45:39.122269	3.046583E-1
03/06/2025  21:45:39.122769	3.059607E-1
03/06/2025  21:45:39.123269	2.336774E-1
03/06/2025  21:45:39.123769	2.450734E-1
03/06/2025  21:45:39.124269	2.297702E-1
03/06/2025  21:45:39.124769	2.167461E-1
03/06/2025  21:45:39.125269	2.593998E-1
03/06/2025  21:45:39.125769	1.529285E-1
03/06/2025  21:45:39.126269	8.585476E-2
03/06/2025  21:45:39.126769	2.920028E-2
03/06/2025  21:45:39.127269	-2.843101E-2
03/06/2025  21:45:39.127769	-4.243183E-2
03/06/2025  21:45:39.128269	-1.029935E-1
03/06/2025  21:45:39.128769	-1.550896E-1
03/06/2025  21:45:39.129269	-2.257449E-1
03/06/2025  21:45:39.129769	-2.775154E-1
03/06/2025  21:45:39.130269	-4.044996E-1
03/06/2025  21:45:39.130769	-4.198028E-1
03/06/2025  21:45:39.131269	-4.390132E-1
03/06/2025  21:45:39.131769	-4.256636E-1
03/06/2025  21:45:39.132269	-4.790621E-1
03/06/2025  21:45:39.132769	-4.660380E-1
03/06/2025  21:45:39.133269	-4.549676E-1
03/06/2025  21:45:39.133769	-4.367340E-1
03/06/2025  21:45:39.134269	-4.061276E-1
03/06/2025  21:45:39.134769	-3.289602E-1
03/06/2025  21:45:39.135269	-3.221226E-1
03/06/2025  21:45:39.135769	-2.703522E-1
03/06/2025  21:45:39.136269	-1.970920E-1
03/06/2025  21:45:39.136769	-1.420656E-1
03/06/2025  21:45:39.137269	-6.847986E-2
03/06/2025  21:45:39.137769	-8.443429E-2
03/06/2025  21:45:39.138269	-3.034169E-3
03/06/2025  21:45:39.138769	8.064515E-2
03/06/2025  21:45:39.139269	1.337180E-1
03/06/2025  21:45:39.139769	2.353054E-1
03/06/2025  21:45:39.140269	2.535390E-1
03/06/2025  21:45:39.140769	3.017279E-1
03/06/2025  21:45:39.141269	3.473119E-1
03/06/2025  21:45:39.141769	4.176416E-1
03/06/2025  21:45:39.142269	4.244792E-1
03/06/2025  21:45:39.142769	4.205720E-1
03/06/2025  21:45:39.143269	4.143856E-1
03/06/2025  21:45:39.143769	4.150368E-1
03/06/2025  21:45:39.144269	4.013616E-1
03/06/2025  21:45:39.144769	2.961927E-1
03/06/2025  21:45:39.145269	2.913087E-1
03/06/2025  21:45:39.145769	2.724238E-1
03/06/2025  21:45:39.146269	1.786509E-1
03/06/2025  21:45:39.146769	1.503237E-1
03/06/2025  21:45:39.147269	8.422676E-2
03/06/2025  21:45:39.147769	2.561867E-2
03/06/2025  21:45:39.148269	-2.843101E-2
03/06/2025  21:45:39.148769	-7.661988E-2
03/06/2025  21:45:39.149269	-9.713271E-2
03/06/2025  21:45:39.149769	-1.586712E-1
03/06/2025  21:45:39.150269	-2.039297E-1
03/06/2025  21:45:39.150769	-2.381177E-1
03/06/2025  21:45:39.151269	-2.814226E-1
03/06/2025  21:45:39.151769	-3.449147E-1
03/06/2025  21:45:39.152269	-3.563107E-1
03/06/2025  21:45:39.152769	-3.553339E-1
03/06/2025  21:45:39.153269	-3.309138E-1
03/06/2025  21:45:39.153769	-2.521185E-1
03/06/2025  21:45:39.154269	-2.687242E-1
03/06/2025  21:45:39.154769	-2.687242E-1
03/06/2025  21:45:39.155269	-2.237913E-1
03/06/2025  21:45:39.155769	-1.635552E-1
03/06/2025  21:45:39.156269	-6.522386E-2
03/06/2025  21:45:39.156769	-1.080566E-3
03/06/2025  21:45:39.157269	5.427151E-2
03/06/2025  21:45:39.157769	1.213452E-1
03/06/2025  21:45:39.158269	1.913493E-1
03/06/2025  21:45:39.158769	1.646501E-1
03/06/2025  21:45:39.159269	2.629814E-1
