waveform	Ch0	
t0	4/7/2025  13:11:16.078349	
delta t	0.000500	

time[0]	Ch0
4/7/2025  13:11:16.078349	1.693145E-1
4/7/2025  13:11:16.078849	1.717727E-1
4/7/2025  13:11:16.079349	1.763476E-1
4/7/2025  13:11:16.079849	1.782595E-1
4/7/2025  13:11:16.080349	1.801031E-1
4/7/2025  13:11:16.080849	1.646713E-1
4/7/2025  13:11:16.081349	1.984710E-1
4/7/2025  13:11:16.081849	1.864534E-1
4/7/2025  13:11:16.082349	1.921208E-1
4/7/2025  13:11:16.082849	1.904820E-1
4/7/2025  13:11:16.083349	1.942375E-1
4/7/2025  13:11:16.083849	1.930767E-1
4/7/2025  13:11:16.084349	1.932816E-1
4/7/2025  13:11:16.084849	2.005878E-1
4/7/2025  13:11:16.085349	2.186826E-1
4/7/2025  13:11:16.085849	2.086451E-1
4/7/2025  13:11:16.086349	2.104887E-1
4/7/2025  13:11:16.086849	2.100107E-1
4/7/2025  13:11:16.087349	2.116495E-1
4/7/2025  13:11:16.087849	2.072794E-1
4/7/2025  13:11:16.088349	2.072794E-1
4/7/2025  13:11:16.088849	2.040019E-1
4/7/2025  13:11:16.089349	1.979248E-1
4/7/2025  13:11:16.089849	1.999050E-1
4/7/2025  13:11:16.090349	1.973102E-1
4/7/2025  13:11:16.090849	1.997684E-1
4/7/2025  13:11:16.091349	1.982662E-1
4/7/2025  13:11:16.091849	1.895943E-1
4/7/2025  13:11:16.092349	1.896626E-1
4/7/2025  13:11:16.092849	1.822881E-1
4/7/2025  13:11:16.093349	1.836538E-1
4/7/2025  13:11:16.093849	1.781229E-1
4/7/2025  13:11:16.094349	1.792837E-1
4/7/2025  13:11:16.094849	1.746405E-1
4/7/2025  13:11:16.095349	1.663784E-1
4/7/2025  13:11:16.095849	1.628960E-1
4/7/2025  13:11:16.096349	1.647396E-1
4/7/2025  13:11:16.096849	1.643982E-1
4/7/2025  13:11:16.097349	1.637154E-1
4/7/2025  13:11:16.097849	1.675392E-1
4/7/2025  13:11:16.098349	1.678806E-1
4/7/2025  13:11:16.098849	1.738211E-1
4/7/2025  13:11:16.099349	1.760745E-1
4/7/2025  13:11:16.099849	1.768256E-1
4/7/2025  13:11:16.100349	1.770987E-1
4/7/2025  13:11:16.100849	1.764842E-1
4/7/2025  13:11:16.101349	1.757331E-1
4/7/2025  13:11:16.101849	1.848146E-1
4/7/2025  13:11:16.102349	1.767573E-1
4/7/2025  13:11:16.102849	1.816053E-1
4/7/2025  13:11:16.103349	1.859071E-1
4/7/2025  13:11:16.103849	1.865899E-1
4/7/2025  13:11:16.104349	1.882287E-1
4/7/2025  13:11:16.104849	1.873410E-1
4/7/2025  13:11:16.105349	1.884335E-1
4/7/2025  13:11:16.105849	1.984027E-1
4/7/2025  13:11:16.106349	1.938278E-1
4/7/2025  13:11:16.106849	1.979248E-1
4/7/2025  13:11:16.107349	1.941692E-1
4/7/2025  13:11:16.107849	1.904137E-1
4/7/2025  13:11:16.108349	1.946472E-1
4/7/2025  13:11:16.108849	1.930767E-1
4/7/2025  13:11:16.109349	1.925305E-1
4/7/2025  13:11:16.109849	1.976516E-1
4/7/2025  13:11:16.110349	1.890481E-1
4/7/2025  13:11:16.110849	1.869313E-1
4/7/2025  13:11:16.111349	1.821516E-1
4/7/2025  13:11:16.111849	1.811273E-1
4/7/2025  13:11:16.112349	1.801031E-1
4/7/2025  13:11:16.112849	1.754599E-1
4/7/2025  13:11:16.113349	1.704753E-1
4/7/2025  13:11:16.113849	1.709533E-1
4/7/2025  13:11:16.114349	1.672661E-1
4/7/2025  13:11:16.114849	1.682220E-1
4/7/2025  13:11:16.115349	1.618035E-1
4/7/2025  13:11:16.115849	1.625546E-1
4/7/2025  13:11:16.116349	1.599599E-1
4/7/2025  13:11:16.116849	1.587991E-1
4/7/2025  13:11:16.117349	1.600281E-1
4/7/2025  13:11:16.117849	1.639885E-1
4/7/2025  13:11:16.118349	1.644665E-1
4/7/2025  13:11:16.118849	1.673343E-1
4/7/2025  13:11:16.119349	1.683586E-1
4/7/2025  13:11:16.119849	1.693828E-1
4/7/2025  13:11:16.120349	1.670612E-1
4/7/2025  13:11:16.120849	1.673343E-1
4/7/2025  13:11:16.121349	1.749819E-1
4/7/2025  13:11:16.121849	1.837904E-1
4/7/2025  13:11:16.122349	1.791472E-1
4/7/2025  13:11:16.122849	1.822199E-1
4/7/2025  13:11:16.123349	1.895261E-1
4/7/2025  13:11:16.123849	1.826978E-1
4/7/2025  13:11:16.124349	1.965591E-1
4/7/2025  13:11:16.124849	1.944424E-1
4/7/2025  13:11:16.125349	2.046847E-1
4/7/2025  13:11:16.125849	2.111032E-1
4/7/2025  13:11:16.126349	1.975834E-1
4/7/2025  13:11:16.126849	2.103521E-1
4/7/2025  13:11:16.127349	2.062552E-1
4/7/2025  13:11:16.127849	2.036605E-1
4/7/2025  13:11:16.128349	2.033191E-1
4/7/2025  13:11:16.128849	1.994953E-1
4/7/2025  13:11:16.129349	1.969005E-1
4/7/2025  13:11:16.129849	1.953983E-1
4/7/2025  13:11:16.130349	1.943741E-1
4/7/2025  13:11:16.130849	1.997001E-1
4/7/2025  13:11:16.131349	1.941010E-1
4/7/2025  13:11:16.131849	1.889798E-1
4/7/2025  13:11:16.132349	1.883653E-1
4/7/2025  13:11:16.132849	1.820833E-1
4/7/2025  13:11:16.133349	1.796934E-1
4/7/2025  13:11:16.133849	1.755282E-1
4/7/2025  13:11:16.134349	1.792837E-1
4/7/2025  13:11:16.134849	1.768256E-1
4/7/2025  13:11:16.135349	1.695877E-1
4/7/2025  13:11:16.135849	1.624180E-1
4/7/2025  13:11:16.136349	1.745040E-1
4/7/2025  13:11:16.136849	1.618035E-1
4/7/2025  13:11:16.137349	1.587991E-1
4/7/2025  13:11:16.137849	1.629643E-1
4/7/2025  13:11:16.138349	1.639885E-1
4/7/2025  13:11:16.138849	1.633740E-1
4/7/2025  13:11:16.139349	1.691780E-1
4/7/2025  13:11:16.139849	1.713630E-1
4/7/2025  13:11:16.140349	1.740943E-1
4/7/2025  13:11:16.140849	1.787375E-1
4/7/2025  13:11:16.141349	1.833124E-1
4/7/2025  13:11:16.141849	1.788740E-1
4/7/2025  13:11:16.142349	1.874776E-1
4/7/2025  13:11:16.142849	1.743674E-1
4/7/2025  13:11:16.143349	1.880921E-1
4/7/2025  13:11:16.143849	1.904137E-1
4/7/2025  13:11:16.144349	1.975834E-1
4/7/2025  13:11:16.144849	2.046847E-1
4/7/2025  13:11:16.145349	2.021583E-1
4/7/2025  13:11:16.145849	1.921208E-1
4/7/2025  13:11:16.146349	2.027728E-1
4/7/2025  13:11:16.146849	2.056407E-1
4/7/2025  13:11:16.147349	2.050944E-1
4/7/2025  13:11:16.147849	2.059821E-1
4/7/2025  13:11:16.148349	2.036605E-1
4/7/2025  13:11:16.148849	1.994953E-1
4/7/2025  13:11:16.149349	1.987442E-1
4/7/2025  13:11:16.149849	1.937596E-1
4/7/2025  13:11:16.150349	1.897309E-1
4/7/2025  13:11:16.150849	1.868631E-1
4/7/2025  13:11:16.151349	1.864534E-1
4/7/2025  13:11:16.151849	1.816053E-1
4/7/2025  13:11:16.152349	1.779181E-1
4/7/2025  13:11:16.152849	1.760745E-1
4/7/2025  13:11:16.153349	1.766890E-1
4/7/2025  13:11:16.153849	1.734797E-1
4/7/2025  13:11:16.154349	1.586625E-1
4/7/2025  13:11:16.154849	1.538145E-1
4/7/2025  13:11:16.155349	1.437087E-1
4/7/2025  13:11:16.155849	1.500589E-1
4/7/2025  13:11:16.156349	1.453475E-1
4/7/2025  13:11:16.156849	1.421382E-1
4/7/2025  13:11:16.157349	1.448695E-1
4/7/2025  13:11:16.157849	1.470545E-1
4/7/2025  13:11:16.158349	1.432990E-1
4/7/2025  13:11:16.158849	1.414554E-1
4/7/2025  13:11:16.159349	1.411823E-1
4/7/2025  13:11:16.159849	1.340809E-1
4/7/2025  13:11:16.160349	1.379730E-1
4/7/2025  13:11:16.160849	1.369488E-1
4/7/2025  13:11:16.161349	1.351051E-1
4/7/2025  13:11:16.161849	1.382461E-1
4/7/2025  13:11:16.162349	1.572286E-1
4/7/2025  13:11:16.162849	1.462351E-1
4/7/2025  13:11:16.163349	1.477373E-1
4/7/2025  13:11:16.163849	1.633057E-1
4/7/2025  13:11:16.164349	1.546338E-1
4/7/2025  13:11:16.164849	1.583894E-1
4/7/2025  13:11:16.165349	1.588673E-1
4/7/2025  13:11:16.165849	1.547704E-1
4/7/2025  13:11:16.166349	1.535413E-1
4/7/2025  13:11:16.166849	1.591405E-1
4/7/2025  13:11:16.167349	1.604378E-1
4/7/2025  13:11:16.167849	1.592770E-1
4/7/2025  13:11:16.168349	1.601647E-1
4/7/2025  13:11:16.168849	1.525171E-1
4/7/2025  13:11:16.169349	1.514246E-1
4/7/2025  13:11:16.169849	1.497858E-1
4/7/2025  13:11:16.170349	1.484202E-1
4/7/2025  13:11:16.170849	1.439135E-1
4/7/2025  13:11:16.171349	1.410457E-1
4/7/2025  13:11:16.171849	1.379047E-1
4/7/2025  13:11:16.172349	1.379047E-1
4/7/2025  13:11:16.172849	1.308716E-1
4/7/2025  13:11:16.173349	1.266381E-1
4/7/2025  13:11:16.173849	1.191954E-1
4/7/2025  13:11:16.174349	1.135280E-1
4/7/2025  13:11:16.174849	1.110698E-1
4/7/2025  13:11:16.175349	1.086116E-1
4/7/2025  13:11:16.175849	1.060169E-1
4/7/2025  13:11:16.176349	1.055389E-1
4/7/2025  13:11:16.176849	1.070412E-1
4/7/2025  13:11:16.177349	1.039685E-1
4/7/2025  13:11:16.177849	1.019200E-1
4/7/2025  13:11:16.178349	1.039002E-1
4/7/2025  13:11:16.178849	1.110698E-1
4/7/2025  13:11:16.179349	1.099773E-1
4/7/2025  13:11:16.179849	1.122989E-1
4/7/2025  13:11:16.180349	1.122306E-1
4/7/2025  13:11:16.180849	1.166007E-1
4/7/2025  13:11:16.181349	1.101821E-1
4/7/2025  13:11:16.181849	1.284135E-1
4/7/2025  13:11:16.182349	1.132548E-1
4/7/2025  13:11:16.182849	1.213804E-1
4/7/2025  13:11:16.183349	1.285500E-1
4/7/2025  13:11:16.183849	1.287549E-1
4/7/2025  13:11:16.184349	1.284818E-1
4/7/2025  13:11:16.184849	1.349686E-1
4/7/2025  13:11:16.185349	1.514246E-1
4/7/2025  13:11:16.185849	1.437770E-1
4/7/2025  13:11:16.186349	1.439135E-1
4/7/2025  13:11:16.186849	1.428893E-1
4/7/2025  13:11:16.187349	1.355831E-1
4/7/2025  13:11:16.187849	1.368122E-1
4/7/2025  13:11:16.188349	1.364025E-1
4/7/2025  13:11:16.188849	1.308716E-1
4/7/2025  13:11:16.189349	1.297108E-1
4/7/2025  13:11:16.189849	1.290280E-1
4/7/2025  13:11:16.190349	1.266381E-1
4/7/2025  13:11:16.190849	1.246580E-1
4/7/2025  13:11:16.191349	1.185808E-1
4/7/2025  13:11:16.191849	1.164641E-1
4/7/2025  13:11:16.192349	1.142791E-1
4/7/2025  13:11:16.192849	1.137328E-1
4/7/2025  13:11:16.193349	1.005543E-1
4/7/2025  13:11:16.193849	1.010323E-1
4/7/2025  13:11:16.194349	8.109391E-2
4/7/2025  13:11:16.194849	9.277017E-2
4/7/2025  13:11:16.195349	8.607851E-2
4/7/2025  13:11:16.195849	8.928778E-2
4/7/2025  13:11:16.196349	8.041109E-2
4/7/2025  13:11:16.196849	8.491772E-2
4/7/2025  13:11:16.197349	8.293753E-2
4/7/2025  13:11:16.197849	8.717103E-2
4/7/2025  13:11:16.198349	8.471287E-2
4/7/2025  13:11:16.198849	8.840011E-2
4/7/2025  13:11:16.199349	8.874152E-2
4/7/2025  13:11:16.199849	8.662477E-2
4/7/2025  13:11:16.200349	9.078999E-2
4/7/2025  13:11:16.200849	9.119968E-2
4/7/2025  13:11:16.201349	9.912041E-2
4/7/2025  13:11:16.201849	1.043099E-1
4/7/2025  13:11:16.202349	9.365784E-2
4/7/2025  13:11:16.202849	9.625256E-2
4/7/2025  13:11:16.203349	9.475035E-2
4/7/2025  13:11:16.203849	1.051975E-1
4/7/2025  13:11:16.204349	1.105235E-1
4/7/2025  13:11:16.204849	1.071777E-1
4/7/2025  13:11:16.205349	1.022614E-1
4/7/2025  13:11:16.205849	1.091579E-1
4/7/2025  13:11:16.206349	1.110698E-1
4/7/2025  13:11:16.206849	1.113429E-1
4/7/2025  13:11:16.207349	1.101138E-1
4/7/2025  13:11:16.207849	1.092262E-1
4/7/2025  13:11:16.208349	1.107967E-1
4/7/2025  13:11:16.208849	1.037636E-1
4/7/2025  13:11:16.209349	1.049927E-1
4/7/2025  13:11:16.209849	1.022614E-1
4/7/2025  13:11:16.210349	9.754992E-2
4/7/2025  13:11:16.210849	1.000081E-1
4/7/2025  13:11:16.211349	9.461379E-2
4/7/2025  13:11:16.211849	9.126796E-2
4/7/2025  13:11:16.212349	9.502348E-2
4/7/2025  13:11:16.212849	9.003888E-2
4/7/2025  13:11:16.213349	9.215563E-2
4/7/2025  13:11:16.213849	8.013796E-2
4/7/2025  13:11:16.214349	7.877232E-2
4/7/2025  13:11:16.214849	7.563134E-2
4/7/2025  13:11:16.215349	7.965999E-2
4/7/2025  13:11:16.215849	7.829434E-2
4/7/2025  13:11:16.216349	7.385600E-2
4/7/2025  13:11:16.216849	7.863575E-2
4/7/2025  13:11:16.217349	8.034281E-2
4/7/2025  13:11:16.217849	8.102563E-2
4/7/2025  13:11:16.218349	8.273269E-2
4/7/2025  13:11:16.218849	8.587367E-2
4/7/2025  13:11:16.219349	8.928778E-2
4/7/2025  13:11:16.219849	9.420410E-2
4/7/2025  13:11:16.220349	9.720851E-2
4/7/2025  13:11:16.220849	8.915121E-2
4/7/2025  13:11:16.221349	1.023297E-1
4/7/2025  13:11:16.221849	1.113429E-1
4/7/2025  13:11:16.222349	1.121623E-1
4/7/2025  13:11:16.222849	1.141425E-1
4/7/2025  13:11:16.223349	1.166007E-1
4/7/2025  13:11:16.223849	1.275258E-1
4/7/2025  13:11:16.224349	1.355831E-1
4/7/2025  13:11:16.224849	1.402263E-1
4/7/2025  13:11:16.225349	1.519708E-1
4/7/2025  13:11:16.225849	1.614621E-1
4/7/2025  13:11:16.226349	1.529951E-1
4/7/2025  13:11:16.226849	1.519708E-1
4/7/2025  13:11:16.227349	1.560678E-1
4/7/2025  13:11:16.227849	1.594819E-1
4/7/2025  13:11:16.228349	1.634423E-1
4/7/2025  13:11:16.228849	1.611207E-1
4/7/2025  13:11:16.229349	1.620766E-1
4/7/2025  13:11:16.229849	1.581845E-1
4/7/2025  13:11:16.230349	1.624180E-1
4/7/2025  13:11:16.230849	1.622815E-1
4/7/2025  13:11:16.231349	1.639202E-1
4/7/2025  13:11:16.231849	1.623497E-1
4/7/2025  13:11:16.232349	1.680172E-1
4/7/2025  13:11:16.232849	1.609841E-1
4/7/2025  13:11:16.233349	1.610524E-1
4/7/2025  13:11:16.233849	1.632374E-1
4/7/2025  13:11:16.234349	1.575017E-1
4/7/2025  13:11:16.234849	1.566823E-1
4/7/2025  13:11:16.235349	1.648079E-1
4/7/2025  13:11:16.235849	1.465083E-1
4/7/2025  13:11:16.236349	1.589356E-1
4/7/2025  13:11:16.236849	1.509466E-1
4/7/2025  13:11:16.237349	1.566140E-1
4/7/2025  13:11:16.237849	1.573651E-1
4/7/2025  13:11:16.238349	1.581845E-1
4/7/2025  13:11:16.238849	1.646713E-1
4/7/2025  13:11:16.239349	1.652859E-1
4/7/2025  13:11:16.239849	1.686317E-1
4/7/2025  13:11:16.240349	1.717727E-1
4/7/2025  13:11:16.240849	1.681537E-1
4/7/2025  13:11:16.241349	1.720458E-1
4/7/2025  13:11:16.241849	1.949886E-1
4/7/2025  13:11:16.242349	1.831758E-1
4/7/2025  13:11:16.242849	1.900723E-1
4/7/2025  13:11:16.243349	1.861119E-1
4/7/2025  13:11:16.243849	1.908917E-1
4/7/2025  13:11:16.244349	2.098742E-1
4/7/2025  13:11:16.244849	2.063235E-1
4/7/2025  13:11:16.245349	2.127420E-1
4/7/2025  13:11:16.245849	2.179997E-1
4/7/2025  13:11:16.246349	2.313148E-1
4/7/2025  13:11:16.246849	2.166341E-1
4/7/2025  13:11:16.247349	2.204579E-1
4/7/2025  13:11:16.247849	2.177949E-1
4/7/2025  13:11:16.248349	2.158830E-1
4/7/2025  13:11:16.248849	2.160196E-1
4/7/2025  13:11:16.249349	2.176583E-1
4/7/2025  13:11:16.249849	2.143808E-1
4/7/2025  13:11:16.250349	2.108301E-1
4/7/2025  13:11:16.250849	2.168389E-1
4/7/2025  13:11:16.251349	2.158830E-1
4/7/2025  13:11:16.251849	2.109667E-1
4/7/2025  13:11:16.252349	2.033873E-1
4/7/2025  13:11:16.252849	2.001098E-1
4/7/2025  13:11:16.253349	2.003146E-1
4/7/2025  13:11:16.253849	1.897309E-1
4/7/2025  13:11:16.254349	1.889115E-1
4/7/2025  13:11:16.254849	1.895261E-1
4/7/2025  13:11:16.255349	1.761427E-1
4/7/2025  13:11:16.255849	1.932816E-1
4/7/2025  13:11:16.256349	1.813322E-1
4/7/2025  13:11:16.256849	1.849511E-1
4/7/2025  13:11:16.257349	1.828344E-1
4/7/2025  13:11:16.257849	1.820150E-1
4/7/2025  13:11:16.258349	1.830392E-1
4/7/2025  13:11:16.258849	1.836538E-1
4/7/2025  13:11:16.259349	1.849511E-1
4/7/2025  13:11:16.259849	1.899357E-1
4/7/2025  13:11:16.260349	1.895943E-1
4/7/2025  13:11:16.260849	1.982662E-1
4/7/2025  13:11:16.261349	1.952618E-1
4/7/2025  13:11:16.261849	1.996318E-1
4/7/2025  13:11:16.262349	1.998367E-1
4/7/2025  13:11:16.262849	1.960129E-1
4/7/2025  13:11:16.263349	2.068697E-1
4/7/2025  13:11:16.263849	2.119226E-1
4/7/2025  13:11:16.264349	2.226429E-1
4/7/2025  13:11:16.264849	2.169072E-1
4/7/2025  13:11:16.265349	2.213456E-1
4/7/2025  13:11:16.265849	2.214821E-1
4/7/2025  13:11:16.266349	2.242817E-1
4/7/2025  13:11:16.266849	2.218235E-1
4/7/2025  13:11:16.267349	2.175900E-1
4/7/2025  13:11:16.267849	2.214821E-1
4/7/2025  13:11:16.268349	2.223015E-1
4/7/2025  13:11:16.268849	2.183411E-1
4/7/2025  13:11:16.269349	2.171803E-1
4/7/2025  13:11:16.269849	2.178632E-1
4/7/2025  13:11:16.270349	2.172486E-1
4/7/2025  13:11:16.270849	2.154733E-1
4/7/2025  13:11:16.271349	2.090548E-1
4/7/2025  13:11:16.271849	2.021583E-1
4/7/2025  13:11:16.272349	2.022265E-1
4/7/2025  13:11:16.272849	2.004512E-1
4/7/2025  13:11:16.273349	1.943741E-1
4/7/2025  13:11:16.273849	1.892529E-1
4/7/2025  13:11:16.274349	1.850194E-1
4/7/2025  13:11:16.274849	1.757331E-1
4/7/2025  13:11:16.275349	1.877507E-1
4/7/2025  13:11:16.275849	1.783278E-1
4/7/2025  13:11:16.276349	1.874776E-1
4/7/2025  13:11:16.276849	1.744357E-1
4/7/2025  13:11:16.277349	1.768938E-1
4/7/2025  13:11:16.277849	1.801714E-1
4/7/2025  13:11:16.278349	1.818102E-1
4/7/2025  13:11:16.278849	1.807177E-1
4/7/2025  13:11:16.279349	1.864534E-1
4/7/2025  13:11:16.279849	1.947838E-1
4/7/2025  13:11:16.280349	1.979248E-1
4/7/2025  13:11:16.280849	2.057089E-1
4/7/2025  13:11:16.281349	1.988124E-1
4/7/2025  13:11:16.281849	2.143125E-1
4/7/2025  13:11:16.282349	2.126737E-1
4/7/2025  13:11:16.282849	2.236672E-1
4/7/2025  13:11:16.283349	2.318610E-1
4/7/2025  13:11:16.283849	2.554184E-1
4/7/2025  13:11:16.284349	2.615638E-1
4/7/2025  13:11:16.284849	2.628611E-1
4/7/2025  13:11:16.285349	2.666167E-1
4/7/2025  13:11:16.285849	2.728303E-1
4/7/2025  13:11:16.286349	2.730352E-1
4/7/2025  13:11:16.286849	2.816388E-1
4/7/2025  13:11:16.287349	2.903106E-1
4/7/2025  13:11:16.287849	2.906520E-1
4/7/2025  13:11:16.288349	2.954318E-1
4/7/2025  13:11:16.288849	2.998701E-1
4/7/2025  13:11:16.289349	3.069032E-1
4/7/2025  13:11:16.289849	3.071080E-1
4/7/2025  13:11:16.290349	3.060838E-1
4/7/2025  13:11:16.290849	3.042402E-1
4/7/2025  13:11:16.291349	3.058789E-1
4/7/2025  13:11:16.291849	2.965243E-1
4/7/2025  13:11:16.292349	3.030794E-1
4/7/2025  13:11:16.292849	2.986410E-1
4/7/2025  13:11:16.293349	3.021234E-1
4/7/2025  13:11:16.293849	2.948855E-1
4/7/2025  13:11:16.294349	3.018503E-1
4/7/2025  13:11:16.294849	2.933150E-1
4/7/2025  13:11:16.295349	2.948855E-1
4/7/2025  13:11:16.295849	2.916762E-1
4/7/2025  13:11:16.296349	2.836872E-1
4/7/2025  13:11:16.296849	2.805462E-1
4/7/2025  13:11:16.297349	2.765859E-1
4/7/2025  13:11:16.297849	2.702356E-1
4/7/2025  13:11:16.298349	2.636805E-1
4/7/2025  13:11:16.298849	2.545990E-1
4/7/2025  13:11:16.299349	2.489999E-1
4/7/2025  13:11:16.299849	2.382796E-1
4/7/2025  13:11:16.300349	2.268081E-1
4/7/2025  13:11:16.300849	2.113081E-1
4/7/2025  13:11:16.301349	1.904820E-1
4/7/2025  13:11:16.301849	1.928719E-1
4/7/2025  13:11:16.302349	1.566823E-1
4/7/2025  13:11:16.302849	1.375633E-1
4/7/2025  13:11:16.303349	1.152350E-1
4/7/2025  13:11:16.303849	8.491772E-2
4/7/2025  13:11:16.304349	6.217974E-2
4/7/2025  13:11:16.304849	3.712017E-2
4/7/2025  13:11:16.305349	-7.809521E-3
4/7/2025  13:11:16.305849	-4.959823E-2
4/7/2025  13:11:16.306349	-8.476357E-2
4/7/2025  13:11:16.306849	-1.212263E-1
4/7/2025  13:11:16.307349	-1.663608E-1
4/7/2025  13:11:16.307849	-2.089006E-1
4/7/2025  13:11:16.308349	-2.551960E-1
4/7/2025  13:11:16.308849	-3.018327E-1
4/7/2025  13:11:16.309349	-3.451236E-1
4/7/2025  13:11:16.309849	-3.914872E-1
4/7/2025  13:11:16.310349	-4.135424E-1
4/7/2025  13:11:16.310849	-4.138838E-1
4/7/2025  13:11:16.311349	-4.138838E-1
4/7/2025  13:11:16.311849	-4.114256E-1
4/7/2025  13:11:16.312349	-4.106745E-1
4/7/2025  13:11:16.312849	-4.131327E-1
4/7/2025  13:11:16.313349	-4.139521E-1
4/7/2025  13:11:16.313849	-4.136790E-1
4/7/2025  13:11:16.314349	-4.140886E-1
4/7/2025  13:11:16.314849	-4.144301E-1
4/7/2025  13:11:16.315349	-4.114939E-1
4/7/2025  13:11:16.315849	-4.103331E-1
4/7/2025  13:11:16.316349	-4.126547E-1
4/7/2025  13:11:16.316849	-4.140886E-1
4/7/2025  13:11:16.317349	-4.144301E-1
4/7/2025  13:11:16.317849	-4.144983E-1
4/7/2025  13:11:16.318349	-4.144983E-1
4/7/2025  13:11:16.318849	-4.123133E-1
4/7/2025  13:11:16.319349	-4.095137E-1
4/7/2025  13:11:16.319849	-4.120402E-1
4/7/2025  13:11:16.320349	-4.143618E-1
4/7/2025  13:11:16.320849	-4.143618E-1
4/7/2025  13:11:16.321349	-4.142935E-1
4/7/2025  13:11:16.321849	-4.147715E-1
4/7/2025  13:11:16.322349	-4.116305E-1
4/7/2025  13:11:16.322849	-4.093089E-1
4/7/2025  13:11:16.323349	-4.119036E-1
4/7/2025  13:11:16.323849	-4.137472E-1
4/7/2025  13:11:16.324349	-4.136790E-1
4/7/2025  13:11:16.324849	-4.134058E-1
4/7/2025  13:11:16.325349	-4.128596E-1
4/7/2025  13:11:16.325849	-4.108794E-1
4/7/2025  13:11:16.326349	-4.100600E-1
4/7/2025  13:11:16.326849	-4.097869E-1
4/7/2025  13:11:16.327349	-4.121767E-1
4/7/2025  13:11:16.327849	-4.128596E-1
4/7/2025  13:11:16.328349	-4.132010E-1
4/7/2025  13:11:16.328849	-4.122450E-1
4/7/2025  13:11:16.329349	-4.114256E-1
4/7/2025  13:11:16.329849	-4.090358E-1
4/7/2025  13:11:16.330349	-4.083529E-1
4/7/2025  13:11:16.330849	-4.088992E-1
4/7/2025  13:11:16.331349	-4.115622E-1
4/7/2025  13:11:16.331849	-4.116305E-1
4/7/2025  13:11:16.332349	-4.115622E-1
4/7/2025  13:11:16.332849	-4.108794E-1
4/7/2025  13:11:16.333349	-4.102648E-1
4/7/2025  13:11:16.333849	-4.078067E-1
4/7/2025  13:11:16.334349	-4.065093E-1
4/7/2025  13:11:16.334849	-4.100600E-1
4/7/2025  13:11:16.335349	-4.107428E-1
4/7/2025  13:11:16.335849	-4.065776E-1
4/7/2025  13:11:16.336349	-4.071239E-1
4/7/2025  13:11:16.336849	-4.022758E-1
4/7/2025  13:11:16.337349	-3.923066E-1
4/7/2025  13:11:16.337849	-3.795379E-1
4/7/2025  13:11:16.338349	-3.677250E-1
4/7/2025  13:11:16.338849	-3.567316E-1
4/7/2025  13:11:16.339349	-3.430752E-1
4/7/2025  13:11:16.339849	-3.294187E-1
4/7/2025  13:11:16.340349	-3.148063E-1
4/7/2025  13:11:16.340849	-2.993745E-1
4/7/2025  13:11:16.341349	-2.803238E-1
4/7/2025  13:11:16.341849	-2.691255E-1
4/7/2025  13:11:16.342349	-2.553325E-1
4/7/2025  13:11:16.342849	-2.432466E-1
4/7/2025  13:11:16.343349	-2.164117E-1
4/7/2025  13:11:16.343849	-2.108125E-1
4/7/2025  13:11:16.344349	-1.906010E-1
4/7/2025  13:11:16.344849	-1.865041E-1
4/7/2025  13:11:16.345349	-1.721648E-1
4/7/2025  13:11:16.345849	-1.531823E-1
4/7/2025  13:11:16.346349	-1.529775E-1
4/7/2025  13:11:16.346849	-1.382285E-1
4/7/2025  13:11:16.347349	-1.292153E-1
4/7/2025  13:11:16.347849	-1.201338E-1
4/7/2025  13:11:16.348349	-1.137835E-1
4/7/2025  13:11:16.348849	-1.049068E-1
4/7/2025  13:11:16.349349	-9.480105E-2
4/7/2025  13:11:16.349849	-8.612921E-2
4/7/2025  13:11:16.350349	-7.506749E-2
4/7/2025  13:11:16.350849	-6.817099E-2
4/7/2025  13:11:16.351349	-6.045510E-2
4/7/2025  13:11:16.351849	-5.485596E-2
4/7/2025  13:11:16.352349	-4.973480E-2
4/7/2025  13:11:16.352849	-4.946167E-2
4/7/2025  13:11:16.353349	-4.891541E-2
4/7/2025  13:11:16.353849	-4.543302E-2
4/7/2025  13:11:16.354349	-3.341535E-2
4/7/2025  13:11:16.354849	-3.921934E-2
4/7/2025  13:11:16.355349	-2.884044E-2
4/7/2025  13:11:16.355849	-3.157173E-2
4/7/2025  13:11:16.356349	-2.822590E-2
4/7/2025  13:11:16.356849	-2.638228E-2
4/7/2025  13:11:16.357349	-2.085142E-2
4/7/2025  13:11:16.357849	-1.975891E-2
4/7/2025  13:11:16.358349	-1.723247E-2
4/7/2025  13:11:16.358849	-1.238443E-2
4/7/2025  13:11:16.359349	-8.150932E-3
4/7/2025  13:11:16.359849	-4.258846E-3
4/7/2025  13:11:16.360349	4.208148E-3
4/7/2025  13:11:16.360849	1.089980E-2
4/7/2025  13:11:16.361349	1.936680E-2
4/7/2025  13:11:16.361849	1.533815E-2
4/7/2025  13:11:16.362349	3.855410E-2
4/7/2025  13:11:16.362849	2.202980E-2
4/7/2025  13:11:16.363349	2.325888E-2
4/7/2025  13:11:16.363849	4.422152E-2
4/7/2025  13:11:16.364349	5.084489E-2
4/7/2025  13:11:16.364849	5.439557E-2
4/7/2025  13:11:16.365349	5.753655E-2
4/7/2025  13:11:16.365849	7.727011E-2
4/7/2025  13:11:16.366349	7.119299E-2
4/7/2025  13:11:16.366849	7.310489E-2
4/7/2025  13:11:16.367349	7.522164E-2
4/7/2025  13:11:16.367849	7.945514E-2
4/7/2025  13:11:16.368349	7.931857E-2
4/7/2025  13:11:16.368849	7.822606E-2
4/7/2025  13:11:16.369349	8.041109E-2
4/7/2025  13:11:16.369849	8.307410E-2
4/7/2025  13:11:16.370349	8.573710E-2
4/7/2025  13:11:16.370849	8.471287E-2
4/7/2025  13:11:16.371349	8.512256E-2
4/7/2025  13:11:16.371849	8.641992E-2
4/7/2025  13:11:16.372349	8.396176E-2
4/7/2025  13:11:16.372849	8.758072E-2
4/7/2025  13:11:16.373349	8.136704E-2
4/7/2025  13:11:16.373849	8.102563E-2
4/7/2025  13:11:16.374349	8.867324E-2
4/7/2025  13:11:16.374849	8.266440E-2
4/7/2025  13:11:16.375349	8.006968E-2
4/7/2025  13:11:16.375849	8.471287E-2
4/7/2025  13:11:16.376349	8.621508E-2
4/7/2025  13:11:16.376849	8.450802E-2
4/7/2025  13:11:16.377349	8.874152E-2
4/7/2025  13:11:16.377849	9.912041E-2
4/7/2025  13:11:16.378349	9.475035E-2
4/7/2025  13:11:16.378849	9.850587E-2
4/7/2025  13:11:16.379349	1.050610E-1
4/7/2025  13:11:16.379849	1.090896E-1
4/7/2025  13:11:16.380349	1.113429E-1
4/7/2025  13:11:16.380849	1.138694E-1
4/7/2025  13:11:16.381349	1.171469E-1
4/7/2025  13:11:16.381849	1.206976E-1
4/7/2025  13:11:16.382349	1.132548E-1
4/7/2025  13:11:16.382849	1.290963E-1
4/7/2025  13:11:16.383349	1.194002E-1
4/7/2025  13:11:16.383849	1.344223E-1
4/7/2025  13:11:16.384349	1.414554E-1
4/7/2025  13:11:16.384849	1.388607E-1
4/7/2025  13:11:16.385349	1.470545E-1
4/7/2025  13:11:16.385849	1.453475E-1
4/7/2025  13:11:16.386349	1.431624E-1
4/7/2025  13:11:16.386849	1.522440E-1
4/7/2025  13:11:16.387349	1.454840E-1
4/7/2025  13:11:16.387849	1.503321E-1
4/7/2025  13:11:16.388349	1.517660E-1
4/7/2025  13:11:16.388849	1.525171E-1
4/7/2025  13:11:16.389349	1.538827E-1
4/7/2025  13:11:16.389849	1.512197E-1
4/7/2025  13:11:16.390349	1.497858E-1
4/7/2025  13:11:16.390849	1.546338E-1
4/7/2025  13:11:16.391349	1.461669E-1
4/7/2025  13:11:16.391849	1.538827E-1
4/7/2025  13:11:16.392349	1.427527E-1
4/7/2025  13:11:16.392849	1.398849E-1
4/7/2025  13:11:16.393349	1.336712E-1
4/7/2025  13:11:16.393849	1.267747E-1
4/7/2025  13:11:16.394349	1.400897E-1
4/7/2025  13:11:16.394849	1.440501E-1
4/7/2025  13:11:16.395349	1.260236E-1
4/7/2025  13:11:16.395849	1.200831E-1
4/7/2025  13:11:16.396349	1.204245E-1
4/7/2025  13:11:16.396849	1.193319E-1
4/7/2025  13:11:16.397349	1.211756E-1
4/7/2025  13:11:16.397849	1.247945E-1
4/7/2025  13:11:16.398349	1.301205E-1
4/7/2025  13:11:16.398849	1.271161E-1
4/7/2025  13:11:16.399349	1.298474E-1
4/7/2025  13:11:16.399849	1.291646E-1
4/7/2025  13:11:16.400349	1.331250E-1
4/7/2025  13:11:16.400849	1.370170E-1
4/7/2025  13:11:16.401349	1.370170E-1
4/7/2025  13:11:16.401849	1.392704E-1
4/7/2025  13:11:16.402349	1.398166E-1
4/7/2025  13:11:16.402849	1.428210E-1
4/7/2025  13:11:16.403349	1.527902E-1
4/7/2025  13:11:16.403849	1.641934E-1
4/7/2025  13:11:16.404349	1.569554E-1
4/7/2025  13:11:16.404849	1.674709E-1
4/7/2025  13:11:16.405349	1.607110E-1
4/7/2025  13:11:16.405849	1.654224E-1
4/7/2025  13:11:16.406349	1.642616E-1
4/7/2025  13:11:16.406849	1.675392E-1
4/7/2025  13:11:16.407349	1.662418E-1
4/7/2025  13:11:16.407849	1.671295E-1
4/7/2025  13:11:16.408349	1.684951E-1
4/7/2025  13:11:16.408849	1.665832E-1
4/7/2025  13:11:16.409349	1.650810E-1
4/7/2025  13:11:16.409849	1.579114E-1
4/7/2025  13:11:16.410349	1.552484E-1
4/7/2025  13:11:16.410849	1.548387E-1
4/7/2025  13:11:16.411349	1.520391E-1
4/7/2025  13:11:16.411849	1.522440E-1
4/7/2025  13:11:16.412349	1.491713E-1
4/7/2025  13:11:16.412849	1.429576E-1
4/7/2025  13:11:16.413349	1.389289E-1
4/7/2025  13:11:16.413849	1.369488E-1
4/7/2025  13:11:16.414349	1.306668E-1
4/7/2025  13:11:16.414849	1.249311E-1
4/7/2025  13:11:16.415349	1.340809E-1
4/7/2025  13:11:16.415849	1.129134E-1
4/7/2025  13:11:16.416349	1.173518E-1
4/7/2025  13:11:16.416849	1.188540E-1
4/7/2025  13:11:16.417349	1.183077E-1
4/7/2025  13:11:16.417849	1.241117E-1
4/7/2025  13:11:16.418349	1.236337E-1
4/7/2025  13:11:16.418849	1.253408E-1
4/7/2025  13:11:16.419349	1.272527E-1
4/7/2025  13:11:16.419849	1.277989E-1
4/7/2025  13:11:16.420349	1.303937E-1
4/7/2025  13:11:16.420849	1.299157E-1
4/7/2025  13:11:16.421349	1.304619E-1
4/7/2025  13:11:16.421849	1.484884E-1
4/7/2025  13:11:16.422349	1.392704E-1
4/7/2025  13:11:16.422849	1.346954E-1
4/7/2025  13:11:16.423349	1.473277E-1
4/7/2025  13:11:16.423849	1.548387E-1
4/7/2025  13:11:16.424349	1.512880E-1
4/7/2025  13:11:16.424849	1.489664E-1
4/7/2025  13:11:16.425349	1.601647E-1
4/7/2025  13:11:16.425849	1.598916E-1
4/7/2025  13:11:16.426349	1.603013E-1
4/7/2025  13:11:16.426849	1.626229E-1
4/7/2025  13:11:16.427349	1.597550E-1
4/7/2025  13:11:16.427849	1.621449E-1
4/7/2025  13:11:16.428349	1.601647E-1
4/7/2025  13:11:16.428849	1.587991E-1
4/7/2025  13:11:16.429349	1.530634E-1
4/7/2025  13:11:16.429849	1.512880E-1
4/7/2025  13:11:16.430349	1.504686E-1
4/7/2025  13:11:16.430849	1.473277E-1
4/7/2025  13:11:16.431349	1.453475E-1
4/7/2025  13:11:16.431849	1.396118E-1
4/7/2025  13:11:16.432349	1.406360E-1
4/7/2025  13:11:16.432849	1.371536E-1
4/7/2025  13:11:16.433349	1.448695E-1
4/7/2025  13:11:16.433849	1.245214E-1
4/7/2025  13:11:16.434349	1.192637E-1
4/7/2025  13:11:16.434849	1.135962E-1
4/7/2025  13:11:16.435349	1.142108E-1
4/7/2025  13:11:16.435849	1.085434E-1
4/7/2025  13:11:16.436349	9.843759E-2
4/7/2025  13:11:16.436849	1.010323E-1
4/7/2025  13:11:16.437349	1.045147E-1
4/7/2025  13:11:16.437849	1.076557E-1
4/7/2025  13:11:16.438349	1.060169E-1
4/7/2025  13:11:16.438849	9.905213E-2
4/7/2025  13:11:16.439349	1.026028E-1
4/7/2025  13:11:16.439849	1.027394E-1
4/7/2025  13:11:16.440349	1.075874E-1
4/7/2025  13:11:16.440849	1.079971E-1
4/7/2025  13:11:16.441349	1.217901E-1
4/7/2025  13:11:16.441849	1.097724E-1
4/7/2025  13:11:16.442349	1.196734E-1
4/7/2025  13:11:16.442849	1.198099E-1
4/7/2025  13:11:16.443349	1.233606E-1
4/7/2025  13:11:16.443849	1.257505E-1
4/7/2025  13:11:16.444349	1.275258E-1
4/7/2025  13:11:16.444849	1.320324E-1
4/7/2025  13:11:16.445349	1.314862E-1
4/7/2025  13:11:16.445849	1.376316E-1
4/7/2025  13:11:16.446349	1.394752E-1
4/7/2025  13:11:16.446849	1.402946E-1
4/7/2025  13:11:16.447349	1.397483E-1
4/7/2025  13:11:16.447849	1.368122E-1
4/7/2025  13:11:16.448349	1.355831E-1
4/7/2025  13:11:16.448849	1.318276E-1
4/7/2025  13:11:16.449349	1.272527E-1
4/7/2025  13:11:16.449849	1.324421E-1
4/7/2025  13:11:16.450349	1.174883E-1
4/7/2025  13:11:16.450849	1.219267E-1
4/7/2025  13:11:16.451349	1.166689E-1
4/7/2025  13:11:16.451849	1.106601E-1
4/7/2025  13:11:16.452349	1.090213E-1
4/7/2025  13:11:16.452849	1.063583E-1
4/7/2025  13:11:16.453349	1.069046E-1
4/7/2025  13:11:16.453849	9.106311E-2
4/7/2025  13:11:16.454349	8.778557E-2
4/7/2025  13:11:16.454849	8.259612E-2
4/7/2025  13:11:16.455349	8.075250E-2
4/7/2025  13:11:16.455849	7.235379E-2
4/7/2025  13:11:16.456349	7.979655E-2
4/7/2025  13:11:16.456849	6.825686E-2
4/7/2025  13:11:16.457349	6.982735E-2
4/7/2025  13:11:16.457849	7.194410E-2
4/7/2025  13:11:16.458349	7.057845E-2
4/7/2025  13:11:16.458849	7.023704E-2
4/7/2025  13:11:16.459349	6.730091E-2
4/7/2025  13:11:16.459849	6.682293E-2
4/7/2025  13:11:16.460349	6.832514E-2
4/7/2025  13:11:16.460849	6.941765E-2
4/7/2025  13:11:16.461349	6.484275E-2
4/7/2025  13:11:16.461849	6.839342E-2
4/7/2025  13:11:16.462349	6.948594E-2
4/7/2025  13:11:16.462849	7.337802E-2
4/7/2025  13:11:16.463349	7.679213E-2
4/7/2025  13:11:16.463849	7.863575E-2
4/7/2025  13:11:16.464349	7.815778E-2
4/7/2025  13:11:16.464849	8.546397E-2
4/7/2025  13:11:16.465349	8.491772E-2
4/7/2025  13:11:16.465849	8.805870E-2
4/7/2025  13:11:16.466349	8.962919E-2
4/7/2025  13:11:16.466849	9.495520E-2
4/7/2025  13:11:16.467349	9.461379E-2
4/7/2025  13:11:16.467849	9.311158E-2
4/7/2025  13:11:16.468349	8.901465E-2
4/7/2025  13:11:16.468849	9.072170E-2
4/7/2025  13:11:16.469349	8.245956E-2
4/7/2025  13:11:16.469849	8.293753E-2
4/7/2025  13:11:16.470349	7.884060E-2
4/7/2025  13:11:16.470849	7.774808E-2
4/7/2025  13:11:16.471349	7.474367E-2
4/7/2025  13:11:16.471849	6.934937E-2
4/7/2025  13:11:16.472349	5.890220E-2
4/7/2025  13:11:16.472849	5.480526E-2
4/7/2025  13:11:16.473349	4.818189E-2
4/7/2025  13:11:16.473849	3.718845E-2
4/7/2025  13:11:16.474349	4.073913E-2
4/7/2025  13:11:16.474849	3.029195E-2
4/7/2025  13:11:16.475349	3.220385E-2
4/7/2025  13:11:16.475849	2.844833E-2
4/7/2025  13:11:16.476349	3.541312E-2
4/7/2025  13:11:16.476849	2.441968E-2
4/7/2025  13:11:16.477349	1.841085E-2
4/7/2025  13:11:16.477849	2.209809E-2
4/7/2025  13:11:16.478349	2.168839E-2
4/7/2025  13:11:16.478849	2.407827E-2
4/7/2025  13:11:16.479349	2.578532E-2
4/7/2025  13:11:16.479849	2.708269E-2
4/7/2025  13:11:16.480349	2.489766E-2
4/7/2025  13:11:16.480849	2.810692E-2
4/7/2025  13:11:16.481349	2.762894E-2
4/7/2025  13:11:16.481849	3.991974E-2
4/7/2025  13:11:16.482349	4.142195E-2
4/7/2025  13:11:16.482849	3.630078E-2
4/7/2025  13:11:16.483349	3.998802E-2
4/7/2025  13:11:16.483849	4.210477E-2
4/7/2025  13:11:16.484349	4.374355E-2
4/7/2025  13:11:16.484849	5.316649E-2
4/7/2025  13:11:16.485349	4.586029E-2
4/7/2025  13:11:16.485849	4.633827E-2
4/7/2025  13:11:16.486349	4.046600E-2
4/7/2025  13:11:16.486849	4.620170E-2
4/7/2025  13:11:16.487349	4.702109E-2
4/7/2025  13:11:16.487849	3.869066E-2
4/7/2025  13:11:16.488349	4.312901E-2
4/7/2025  13:11:16.488849	3.322809E-2
4/7/2025  13:11:16.489349	3.193072E-2
4/7/2025  13:11:16.489849	2.476109E-2
4/7/2025  13:11:16.490349	2.667299E-2
4/7/2025  13:11:16.490849	2.202980E-2
4/7/2025  13:11:16.491349	1.806944E-2
4/7/2025  13:11:16.491849	1.540643E-2
4/7/2025  13:11:16.492349	1.308483E-2
4/7/2025  13:11:16.492849	1.417735E-2
4/7/2025  13:11:16.493349	2.979068E-3
4/7/2025  13:11:16.493849	-9.653140E-3
4/7/2025  13:11:16.494349	-1.545713E-2
4/7/2025  13:11:16.494849	-1.859811E-2
4/7/2025  13:11:16.495349	-1.941750E-2
4/7/2025  13:11:16.495849	-2.979639E-2
4/7/2025  13:11:16.496349	-2.057829E-2
4/7/2025  13:11:16.496849	-3.177658E-2
4/7/2025  13:11:16.497349	-2.706510E-2
4/7/2025  13:11:16.497849	-2.733823E-2
4/7/2025  13:11:16.498349	-3.082062E-2
4/7/2025  13:11:16.498849	-3.136688E-2
4/7/2025  13:11:16.499349	-2.815762E-2
4/7/2025  13:11:16.499849	-3.006952E-2
4/7/2025  13:11:16.500349	-3.628320E-2
4/7/2025  13:11:16.500849	-3.198142E-2
4/7/2025  13:11:16.501349	-3.587351E-2
4/7/2025  13:11:16.501849	-3.204970E-2
4/7/2025  13:11:16.502349	-3.143516E-2
4/7/2025  13:11:16.502849	-2.638228E-2
4/7/2025  13:11:16.503349	-2.651885E-2
4/7/2025  13:11:16.503849	-2.057829E-2
4/7/2025  13:11:16.504349	-2.392412E-2
4/7/2025  13:11:16.504849	-2.658713E-2
4/7/2025  13:11:16.505349	-2.330958E-2
4/7/2025  13:11:16.505849	-2.337786E-2
4/7/2025  13:11:16.506349	-2.392412E-2
4/7/2025  13:11:16.506849	-1.586682E-2
4/7/2025  13:11:16.507349	-2.132940E-2
4/7/2025  13:11:16.507849	-2.187566E-2
4/7/2025  13:11:16.508349	-2.856731E-2
4/7/2025  13:11:16.508849	-3.280081E-2
4/7/2025  13:11:16.509349	-3.471271E-2
4/7/2025  13:11:16.509849	-3.764884E-2
4/7/2025  13:11:16.510349	-4.072154E-2
4/7/2025  13:11:16.510849	-4.659381E-2
4/7/2025  13:11:16.511349	-5.260265E-2
4/7/2025  13:11:16.511849	-5.806522E-2
4/7/2025  13:11:16.512349	-6.311811E-2
4/7/2025  13:11:16.512849	-6.332295E-2
4/7/2025  13:11:16.513349	-7.322387E-2
4/7/2025  13:11:16.513849	-8.319308E-2
4/7/2025  13:11:16.514349	-8.360277E-2
4/7/2025  13:11:16.514849	-9.951252E-2
4/7/2025  13:11:16.515349	-9.514246E-2
4/7/2025  13:11:16.515849	-1.006050E-1
4/7/2025  13:11:16.516349	-1.070236E-1
4/7/2025  13:11:16.516849	-1.128958E-1
4/7/2025  13:11:16.517349	-1.153540E-1
4/7/2025  13:11:16.517849	-1.188364E-1
4/7/2025  13:11:16.518349	-1.221822E-1
4/7/2025  13:11:16.518849	-1.174707E-1
4/7/2025  13:11:16.519349	-1.201338E-1
4/7/2025  13:11:16.519849	-1.205434E-1
4/7/2025  13:11:16.520349	-1.196558E-1
4/7/2025  13:11:16.520849	-1.237527E-1
4/7/2025  13:11:16.521349	-1.311272E-1
4/7/2025  13:11:16.521849	-1.225236E-1
4/7/2025  13:11:16.522349	-1.240941E-1
4/7/2025  13:11:16.522849	-1.242307E-1
4/7/2025  13:11:16.523349	-1.243672E-1
4/7/2025  13:11:16.523849	-1.142615E-1
4/7/2025  13:11:16.524349	-1.234796E-1
4/7/2025  13:11:16.524849	-1.208849E-1
4/7/2025  13:11:16.525349	-1.206800E-1
4/7/2025  13:11:16.525849	-1.176073E-1
4/7/2025  13:11:16.526349	-1.267571E-1
4/7/2025  13:11:16.526849	-1.277131E-1
4/7/2025  13:11:16.527349	-1.282593E-1
4/7/2025  13:11:16.527849	-1.335171E-1
4/7/2025  13:11:16.528349	-1.365898E-1
4/7/2025  13:11:16.528849	-1.441008E-1
4/7/2025  13:11:16.529349	-1.444422E-1
4/7/2025  13:11:16.529849	-1.509973E-1
4/7/2025  13:11:16.530349	-1.558453E-1
4/7/2025  13:11:16.530849	-1.626736E-1
4/7/2025  13:11:16.531349	-1.646537E-1
4/7/2025  13:11:16.531849	-1.730525E-1
4/7/2025  13:11:16.532349	-1.834314E-1
4/7/2025  13:11:16.532849	-1.783785E-1
4/7/2025  13:11:16.533349	-1.943565E-1
4/7/2025  13:11:16.533849	-2.068522E-1
4/7/2025  13:11:16.534349	-2.129976E-1
4/7/2025  13:11:16.534849	-2.089689E-1
4/7/2025  13:11:16.535349	-2.245372E-1
4/7/2025  13:11:16.535849	-2.302047E-1
4/7/2025  13:11:16.536349	-2.382620E-1
4/7/2025  13:11:16.536849	-2.366915E-1
4/7/2025  13:11:16.537349	-2.400373E-1
4/7/2025  13:11:16.537849	-2.419492E-1
4/7/2025  13:11:16.538349	-2.458413E-1
4/7/2025  13:11:16.538849	-2.495968E-1
4/7/2025  13:11:16.539349	-2.514404E-1
4/7/2025  13:11:16.539849	-2.538986E-1
4/7/2025  13:11:16.540349	-2.564250E-1
4/7/2025  13:11:16.540849	-2.571079E-1
4/7/2025  13:11:16.541349	-2.605220E-1
4/7/2025  13:11:16.541849	-2.625704E-1
4/7/2025  13:11:16.542349	-2.541717E-1
4/7/2025  13:11:16.542849	-2.619559E-1
4/7/2025  13:11:16.543349	-2.629118E-1
4/7/2025  13:11:16.543849	-2.652334E-1
4/7/2025  13:11:16.544349	-2.617510E-1
4/7/2025  13:11:16.544849	-2.629118E-1
4/7/2025  13:11:16.545349	-2.717202E-1
4/7/2025  13:11:16.545849	-2.707643E-1
4/7/2025  13:11:16.546349	-2.721299E-1
4/7/2025  13:11:16.546849	-2.725396E-1
4/7/2025  13:11:16.547349	-2.765000E-1
4/7/2025  13:11:16.547849	-2.829185E-1
4/7/2025  13:11:16.548349	-2.855815E-1
4/7/2025  13:11:16.548849	-2.930926E-1
4/7/2025  13:11:16.549349	-2.998525E-1
4/7/2025  13:11:16.549849	-3.025155E-1
4/7/2025  13:11:16.550349	-3.105728E-1
4/7/2025  13:11:16.550849	-3.134407E-1
4/7/2025  13:11:16.551349	-3.204055E-1
4/7/2025  13:11:16.551849	-3.260046E-1
4/7/2025  13:11:16.552349	-3.346082E-1
4/7/2025  13:11:16.552849	-3.418461E-1
4/7/2025  13:11:16.553349	-3.475135E-1
4/7/2025  13:11:16.553849	-3.516787E-1
4/7/2025  13:11:16.554349	-3.580972E-1
4/7/2025  13:11:16.554849	-3.598043E-1
4/7/2025  13:11:16.555349	-3.662228E-1
4/7/2025  13:11:16.555849	-3.649937E-1
4/7/2025  13:11:16.556349	-3.666325E-1
4/7/2025  13:11:16.556849	-3.748947E-1
4/7/2025  13:11:16.557349	-3.755092E-1
4/7/2025  13:11:16.557849	-3.749629E-1
4/7/2025  13:11:16.558349	-3.705929E-1
4/7/2025  13:11:16.558849	-3.708660E-1
4/7/2025  13:11:16.559349	-3.695687E-1
4/7/2025  13:11:16.559849	-3.710709E-1
4/7/2025  13:11:16.560349	-3.735290E-1
4/7/2025  13:11:16.560849	-3.720951E-1
4/7/2025  13:11:16.561349	-3.720268E-1
4/7/2025  13:11:16.561849	-3.747581E-1
4/7/2025  13:11:16.562349	-3.632184E-1
4/7/2025  13:11:16.562849	-3.673836E-1
4/7/2025  13:11:16.563349	-3.644475E-1
4/7/2025  13:11:16.563849	-3.688175E-1
4/7/2025  13:11:16.564349	-3.647206E-1
4/7/2025  13:11:16.564849	-3.666325E-1
4/7/2025  13:11:16.565349	-3.660180E-1
4/7/2025  13:11:16.565849	-3.656766E-1
4/7/2025  13:11:16.566349	-3.647889E-1
4/7/2025  13:11:16.566849	-3.630136E-1
4/7/2025  13:11:16.567349	-3.665642E-1
4/7/2025  13:11:16.567849	-3.721634E-1
4/7/2025  13:11:16.568349	-3.735290E-1
4/7/2025  13:11:16.568849	-3.755775E-1
4/7/2025  13:11:16.569349	-3.798793E-1
4/7/2025  13:11:16.569849	-3.812449E-1
4/7/2025  13:11:16.570349	-3.783771E-1
4/7/2025  13:11:16.570849	-3.837031E-1
4/7/2025  13:11:16.571349	-3.862295E-1
4/7/2025  13:11:16.571849	-3.904630E-1
4/7/2025  13:11:16.572349	-3.926480E-1
4/7/2025  13:11:16.572849	-3.964718E-1
4/7/2025  13:11:16.573349	-3.955159E-1
4/7/2025  13:11:16.573849	-3.938771E-1
4/7/2025  13:11:16.574349	-3.961987E-1
4/7/2025  13:11:16.574849	-4.000908E-1
4/7/2025  13:11:16.575349	-4.038463E-1
4/7/2025  13:11:16.575849	-4.026855E-1
4/7/2025  13:11:16.576349	-4.010467E-1
4/7/2025  13:11:16.576849	-4.026855E-1
4/7/2025  13:11:16.577349	-3.989300E-1
4/7/2025  13:11:16.577849	-3.961304E-1
4/7/2025  13:11:16.578349	-3.949013E-1
4/7/2025  13:11:16.578849	-3.936040E-1
4/7/2025  13:11:16.579349	-3.949696E-1
4/7/2025  13:11:16.579849	-3.930577E-1
4/7/2025  13:11:16.580349	-3.923066E-1
4/7/2025  13:11:16.580849	-3.903264E-1
4/7/2025  13:11:16.581349	-3.888242E-1
4/7/2025  13:11:16.581849	-3.841810E-1
4/7/2025  13:11:16.582349	-3.890974E-1
4/7/2025  13:11:16.582849	-3.886194E-1
4/7/2025  13:11:16.583349	-3.847956E-1
4/7/2025  13:11:16.583849	-3.828837E-1
4/7/2025  13:11:16.584349	-3.806304E-1
4/7/2025  13:11:16.584849	-3.798110E-1
4/7/2025  13:11:16.585349	-3.763286E-1
4/7/2025  13:11:16.585849	-3.786502E-1
4/7/2025  13:11:16.586349	-3.856833E-1
4/7/2025  13:11:16.586849	-3.848639E-1
4/7/2025  13:11:16.587349	-3.844542E-1
4/7/2025  13:11:16.587849	-3.868440E-1
4/7/2025  13:11:16.588349	-3.860247E-1
4/7/2025  13:11:16.588849	-3.889608E-1
4/7/2025  13:11:16.589349	-3.886194E-1
4/7/2025  13:11:16.589849	-3.867758E-1
4/7/2025  13:11:16.590349	-3.862295E-1
4/7/2025  13:11:16.590849	-3.867758E-1
4/7/2025  13:11:16.591349	-3.876634E-1
4/7/2025  13:11:16.591849	-3.895753E-1
4/7/2025  13:11:16.592349	-3.888242E-1
4/7/2025  13:11:16.592849	-3.875952E-1
4/7/2025  13:11:16.593349	-3.916921E-1
4/7/2025  13:11:16.593849	-3.907361E-1
4/7/2025  13:11:16.594349	-3.878683E-1
4/7/2025  13:11:16.594849	-3.903947E-1
4/7/2025  13:11:16.595349	-3.929212E-1
4/7/2025  13:11:16.595849	-3.863661E-1
4/7/2025  13:11:16.596349	-3.918286E-1
4/7/2025  13:11:16.596849	-3.893022E-1
4/7/2025  13:11:16.597349	-3.838396E-1
4/7/2025  13:11:16.597849	-3.799475E-1
4/7/2025  13:11:16.598349	-3.779674E-1
4/7/2025  13:11:16.598849	-3.782405E-1
4/7/2025  13:11:16.599349	-3.750312E-1
4/7/2025  13:11:16.599849	-3.735290E-1
4/7/2025  13:11:16.600349	-3.694321E-1
4/7/2025  13:11:16.600849	-3.671788E-1
4/7/2025  13:11:16.601349	-3.636281E-1
4/7/2025  13:11:16.601849	-3.583021E-1
4/7/2025  13:11:16.602349	-3.581655E-1
4/7/2025  13:11:16.602849	-3.538637E-1
4/7/2025  13:11:16.603349	-3.548197E-1
4/7/2025  13:11:16.603849	-3.490157E-1
4/7/2025  13:11:16.604349	-3.401390E-1
4/7/2025  13:11:16.604849	-3.382271E-1
4/7/2025  13:11:16.605349	-3.344716E-1
4/7/2025  13:11:16.605849	-3.298967E-1
4/7/2025  13:11:16.606349	-3.218394E-1
4/7/2025  13:11:16.606849	-3.267557E-1
4/7/2025  13:11:16.607349	-3.231368E-1
4/7/2025  13:11:16.607849	-3.217711E-1
4/7/2025  13:11:16.608349	-3.214297E-1
4/7/2025  13:11:16.608849	-3.184253E-1
4/7/2025  13:11:16.609349	-3.148746E-1
4/7/2025  13:11:16.609849	-3.126213E-1
4/7/2025  13:11:16.610349	-3.130310E-1
4/7/2025  13:11:16.610849	-3.111874E-1
4/7/2025  13:11:16.611349	-3.104363E-1
4/7/2025  13:11:16.611849	-3.080464E-1
4/7/2025  13:11:16.612349	-3.079098E-1
4/7/2025  13:11:16.612849	-3.062710E-1
4/7/2025  13:11:16.613349	-3.046323E-1
4/7/2025  13:11:16.613849	-3.058614E-1
4/7/2025  13:11:16.614349	-3.063393E-1
4/7/2025  13:11:16.614849	-3.135772E-1
4/7/2025  13:11:16.615349	-2.978723E-1
4/7/2025  13:11:16.615849	-2.945948E-1
4/7/2025  13:11:16.616349	-2.984869E-1
4/7/2025  13:11:16.616849	-2.928195E-1
4/7/2025  13:11:16.617349	-2.878348E-1
4/7/2025  13:11:16.617849	-2.799141E-1
4/7/2025  13:11:16.618349	-2.750661E-1
4/7/2025  13:11:16.618849	-2.724031E-1
4/7/2025  13:11:16.619349	-2.676233E-1
4/7/2025  13:11:16.619849	-2.609999E-1
4/7/2025  13:11:16.620349	-2.553325E-1
4/7/2025  13:11:16.620849	-2.489140E-1
4/7/2025  13:11:16.621349	-2.398325E-1
4/7/2025  13:11:16.621849	-2.383302E-1
4/7/2025  13:11:16.622349	-2.317752E-1
4/7/2025  13:11:16.622849	-2.130658E-1
4/7/2025  13:11:16.623349	-1.995460E-1
4/7/2025  13:11:16.623849	-1.993411E-1
4/7/2025  13:11:16.624349	-1.853433E-1
4/7/2025  13:11:16.624849	-1.766031E-1
4/7/2025  13:11:16.625349	-1.738036E-1
4/7/2025  13:11:16.625849	-1.583718E-1
4/7/2025  13:11:16.626349	-1.615810E-1
4/7/2025  13:11:16.626849	-1.462858E-1
4/7/2025  13:11:16.627349	-1.393893E-1
4/7/2025  13:11:16.627849	-1.361801E-1
4/7/2025  13:11:16.628349	-1.347461E-1
4/7/2025  13:11:16.628849	-1.293518E-1
4/7/2025  13:11:16.629349	-1.259377E-1
4/7/2025  13:11:16.629849	-1.276448E-1
4/7/2025  13:11:16.630349	-1.183584E-1
4/7/2025  13:11:16.630849	-1.160368E-1
4/7/2025  13:11:16.631349	-1.095500E-1
4/7/2025  13:11:16.631849	-1.070236E-1
4/7/2025  13:11:16.632349	-1.083209E-1
4/7/2025  13:11:16.632849	-1.079112E-1
4/7/2025  13:11:16.633349	-1.079112E-1
4/7/2025  13:11:16.633849	-1.079795E-1
4/7/2025  13:11:16.634349	-1.045654E-1
4/7/2025  13:11:16.634849	-9.575700E-2
4/7/2025  13:11:16.635349	-1.105742E-1
4/7/2025  13:11:16.635849	-9.999050E-2
4/7/2025  13:11:16.636349	-9.500590E-2
4/7/2025  13:11:16.636849	-8.906535E-2
4/7/2025  13:11:16.637349	-9.459621E-2
4/7/2025  13:11:16.637849	-8.373933E-2
4/7/2025  13:11:16.638349	-7.670627E-2
4/7/2025  13:11:16.638849	-6.503001E-2
4/7/2025  13:11:16.639349	-6.434719E-2
4/7/2025  13:11:16.639849	-5.690443E-2
4/7/2025  13:11:16.640349	-4.543302E-2
4/7/2025  13:11:16.640849	-4.099467E-2
4/7/2025  13:11:16.641349	-3.184486E-2
4/7/2025  13:11:16.641849	-2.467523E-2
4/7/2025  13:11:16.642349	-2.330958E-2
4/7/2025  13:11:16.642849	-6.170748E-3
4/7/2025  13:11:16.643349	-2.483509E-3
4/7/2025  13:11:16.643849	1.417735E-2
4/7/2025  13:11:16.644349	5.027534E-3
4/7/2025  13:11:16.644849	1.492845E-2
4/7/2025  13:11:16.645349	2.414655E-2
4/7/2025  13:11:16.645849	3.752986E-2
4/7/2025  13:11:16.646349	3.493514E-2
4/7/2025  13:11:16.646849	3.985146E-2
4/7/2025  13:11:16.647349	4.586029E-2
4/7/2025  13:11:16.647849	5.125459E-2
4/7/2025  13:11:16.648349	5.125459E-2
4/7/2025  13:11:16.648849	5.535152E-2
4/7/2025  13:11:16.649349	6.060925E-2
4/7/2025  13:11:16.649849	6.108723E-2
4/7/2025  13:11:16.650349	6.627667E-2
4/7/2025  13:11:16.650849	6.573042E-2
4/7/2025  13:11:16.651349	6.716434E-2
4/7/2025  13:11:16.651849	7.003219E-2
4/7/2025  13:11:16.652349	7.132956E-2
4/7/2025  13:11:16.652849	6.170177E-2
4/7/2025  13:11:16.653349	6.634496E-2
4/7/2025  13:11:16.653849	7.576790E-2
4/7/2025  13:11:16.654349	6.293085E-2
4/7/2025  13:11:16.654849	6.982735E-2
4/7/2025  13:11:16.655349	6.183833E-2
4/7/2025  13:11:16.655849	6.074581E-2
4/7/2025  13:11:16.656349	5.883391E-2
4/7/2025  13:11:16.656849	6.375023E-2
4/7/2025  13:11:16.657349	6.504759E-2
4/7/2025  13:11:16.657849	6.914453E-2
4/7/2025  13:11:16.658349	7.330974E-2
4/7/2025  13:11:16.658849	7.645072E-2
4/7/2025  13:11:16.659349	8.061594E-2
4/7/2025  13:11:16.659849	7.918201E-2
4/7/2025  13:11:16.660349	8.519084E-2
4/7/2025  13:11:16.660849	8.696618E-2
4/7/2025  13:11:16.661349	8.962919E-2
4/7/2025  13:11:16.661849	1.023297E-1
4/7/2025  13:11:16.662349	9.488692E-2
4/7/2025  13:11:16.662849	1.044464E-1
4/7/2025  13:11:16.663349	1.116161E-1
4/7/2025  13:11:16.663849	1.231558E-1
4/7/2025  13:11:16.664349	1.159178E-1
4/7/2025  13:11:16.664849	1.297108E-1
4/7/2025  13:11:16.665349	1.314862E-1
4/7/2025  13:11:16.665849	1.352417E-1
4/7/2025  13:11:16.666349	1.353100E-1
4/7/2025  13:11:16.666849	1.450743E-1
4/7/2025  13:11:16.667349	1.471911E-1
4/7/2025  13:11:16.667849	1.520391E-1
4/7/2025  13:11:16.668349	1.527902E-1
4/7/2025  13:11:16.668849	1.469862E-1
4/7/2025  13:11:16.669349	1.473959E-1
4/7/2025  13:11:16.669849	1.478739E-1
4/7/2025  13:11:16.670349	1.398849E-1
4/7/2025  13:11:16.670849	1.427527E-1
4/7/2025  13:11:16.671349	1.398166E-1
4/7/2025  13:11:16.671849	1.414554E-1
4/7/2025  13:11:16.672349	1.417968E-1
4/7/2025  13:11:16.672849	1.390655E-1
4/7/2025  13:11:16.673349	1.364025E-1
4/7/2025  13:11:16.673849	1.323738E-1
4/7/2025  13:11:16.674349	1.293011E-1
4/7/2025  13:11:16.674849	1.339443E-1
4/7/2025  13:11:16.675349	1.190588E-1
4/7/2025  13:11:16.675849	1.226095E-1
4/7/2025  13:11:16.676349	1.145522E-1
4/7/2025  13:11:16.676849	1.230192E-1
4/7/2025  13:11:16.677349	1.269113E-1
4/7/2025  13:11:16.677849	1.226095E-1
4/7/2025  13:11:16.678349	1.212438E-1
4/7/2025  13:11:16.678849	1.257505E-1
4/7/2025  13:11:16.679349	1.280038E-1
4/7/2025  13:11:16.679849	1.288232E-1
4/7/2025  13:11:16.680349	1.328518E-1
4/7/2025  13:11:16.680849	1.377681E-1
4/7/2025  13:11:16.681349	1.390655E-1
4/7/2025  13:11:16.681849	1.401580E-1
4/7/2025  13:11:16.682349	1.432307E-1
4/7/2025  13:11:16.682849	1.540876E-1
4/7/2025  13:11:16.683349	1.456889E-1
4/7/2025  13:11:16.683849	1.634423E-1
4/7/2025  13:11:16.684349	1.521074E-1
4/7/2025  13:11:16.684849	1.754599E-1
4/7/2025  13:11:16.685349	1.778498E-1
4/7/2025  13:11:16.685849	1.693145E-1
4/7/2025  13:11:16.686349	1.716361E-1
4/7/2025  13:11:16.686849	1.789423E-1
4/7/2025  13:11:16.687349	1.793520E-1
4/7/2025  13:11:16.687849	1.796251E-1
4/7/2025  13:11:16.688349	1.795569E-1
4/7/2025  13:11:16.688849	1.761427E-1
4/7/2025  13:11:16.689349	1.773718E-1
4/7/2025  13:11:16.689849	1.772353E-1
4/7/2025  13:11:16.690349	1.775767E-1
4/7/2025  13:11:16.690849	1.762110E-1
4/7/2025  13:11:16.691349	1.727286E-1
4/7/2025  13:11:16.691849	1.684951E-1
4/7/2025  13:11:16.692349	1.695877E-1
4/7/2025  13:11:16.692849	1.637154E-1
4/7/2025  13:11:16.693349	1.621449E-1
4/7/2025  13:11:16.693849	1.628277E-1
4/7/2025  13:11:16.694349	1.524488E-1
4/7/2025  13:11:16.694849	1.495127E-1
4/7/2025  13:11:16.695349	1.505369E-1
4/7/2025  13:11:16.695849	1.452109E-1
4/7/2025  13:11:16.696349	1.555898E-1
4/7/2025  13:11:16.696849	1.443915E-1
4/7/2025  13:11:16.697349	1.454158E-1
4/7/2025  13:11:16.697849	1.448695E-1
4/7/2025  13:11:16.698349	1.493078E-1
4/7/2025  13:11:16.698849	1.526537E-1
4/7/2025  13:11:16.699349	1.521074E-1
4/7/2025  13:11:16.699849	1.523123E-1
4/7/2025  13:11:16.700349	1.522440E-1
4/7/2025  13:11:16.700849	1.552484E-1
4/7/2025  13:11:16.701349	1.600964E-1
4/7/2025  13:11:16.701849	1.639885E-1
4/7/2025  13:11:16.702349	1.608475E-1
4/7/2025  13:11:16.702849	1.702022E-1
4/7/2025  13:11:16.703349	1.717727E-1
4/7/2025  13:11:16.703849	1.740260E-1
4/7/2025  13:11:16.704349	1.807859E-1
4/7/2025  13:11:16.704849	1.834489E-1
4/7/2025  13:11:16.705349	1.845415E-1
4/7/2025  13:11:16.705849	1.966957E-1
4/7/2025  13:11:16.706349	1.862485E-1
4/7/2025  13:11:16.706849	1.861802E-1
4/7/2025  13:11:16.707349	1.991538E-1
4/7/2025  13:11:16.707849	1.937596E-1
4/7/2025  13:11:16.708349	1.907551E-1
4/7/2025  13:11:16.708849	1.872727E-1
4/7/2025  13:11:16.709349	1.886384E-1
4/7/2025  13:11:16.709849	1.787375E-1
4/7/2025  13:11:16.710349	1.695194E-1
4/7/2025  13:11:16.710849	1.675392E-1
4/7/2025  13:11:16.711349	1.650127E-1
4/7/2025  13:11:16.711849	1.628960E-1
4/7/2025  13:11:16.712349	1.660370E-1
4/7/2025  13:11:16.712849	1.637837E-1
4/7/2025  13:11:16.713349	1.596867E-1
4/7/2025  13:11:16.713849	1.540193E-1
4/7/2025  13:11:16.714349	1.516977E-1
4/7/2025  13:11:16.714849	1.443232E-1
4/7/2025  13:11:16.715349	1.430259E-1
4/7/2025  13:11:16.715849	1.354465E-1
4/7/2025  13:11:16.716349	1.357197E-1
4/7/2025  13:11:16.716849	1.368122E-1
4/7/2025  13:11:16.717349	1.378364E-1
4/7/2025  13:11:16.717849	1.418651E-1
4/7/2025  13:11:16.718349	1.415919E-1
4/7/2025  13:11:16.718849	1.411823E-1
4/7/2025  13:11:16.719349	1.430259E-1
4/7/2025  13:11:16.719849	1.426845E-1
4/7/2025  13:11:16.720349	1.424113E-1
4/7/2025  13:11:16.720849	1.503321E-1
4/7/2025  13:11:16.721349	1.453475E-1
4/7/2025  13:11:16.721849	1.515611E-1
4/7/2025  13:11:16.722349	1.581162E-1
4/7/2025  13:11:16.722849	1.837904E-1
4/7/2025  13:11:16.723349	1.676075E-1
4/7/2025  13:11:16.723849	1.649445E-1
4/7/2025  13:11:16.724349	1.723872E-1
4/7/2025  13:11:16.724849	1.783278E-1
4/7/2025  13:11:16.725349	1.953300E-1
4/7/2025  13:11:16.725849	1.752551E-1
4/7/2025  13:11:16.726349	1.849511E-1
4/7/2025  13:11:16.726849	1.880921E-1
4/7/2025  13:11:16.727349	1.943741E-1
4/7/2025  13:11:16.727849	2.017486E-1
4/7/2025  13:11:16.728349	1.973102E-1
4/7/2025  13:11:16.728849	1.917111E-1
4/7/2025  13:11:16.729349	1.902772E-1
4/7/2025  13:11:16.729849	1.894578E-1
4/7/2025  13:11:16.730349	1.889115E-1
4/7/2025  13:11:16.730849	1.862485E-1
4/7/2025  13:11:16.731349	1.904137E-1
4/7/2025  13:11:16.731849	1.850194E-1
4/7/2025  13:11:16.732349	1.842000E-1
4/7/2025  13:11:16.732849	1.749137E-1
4/7/2025  13:11:16.733349	1.732066E-1
4/7/2025  13:11:16.733849	1.590722E-1
4/7/2025  13:11:16.734349	1.626911E-1
4/7/2025  13:11:16.734849	1.522440E-1
4/7/2025  13:11:16.735349	1.525854E-1
4/7/2025  13:11:16.735849	1.501955E-1
4/7/2025  13:11:16.736349	1.514929E-1
4/7/2025  13:11:16.736849	1.531999E-1
4/7/2025  13:11:16.737349	1.508100E-1
4/7/2025  13:11:16.737849	1.567506E-1
4/7/2025  13:11:16.738349	1.482153E-1
4/7/2025  13:11:16.738849	1.483519E-1
4/7/2025  13:11:16.739349	1.491713E-1
4/7/2025  13:11:16.739849	1.534731E-1
4/7/2025  13:11:16.740349	1.529951E-1
4/7/2025  13:11:16.740849	1.582528E-1
4/7/2025  13:11:16.741349	1.612572E-1
4/7/2025  13:11:16.741849	1.684269E-1
4/7/2025  13:11:16.742349	1.786692E-1
4/7/2025  13:11:16.742849	1.615304E-1
4/7/2025  13:11:16.743349	1.618035E-1
4/7/2025  13:11:16.743849	1.868631E-1
4/7/2025  13:11:16.744349	1.747771E-1
4/7/2025  13:11:16.744849	1.781229E-1
4/7/2025  13:11:16.745349	1.879556E-1
4/7/2025  13:11:16.745849	1.919159E-1
4/7/2025  13:11:16.746349	2.087134E-1
4/7/2025  13:11:16.746849	1.928719E-1
4/7/2025  13:11:16.747349	1.936913E-1
4/7/2025  13:11:16.747849	1.930084E-1
4/7/2025  13:11:16.748349	1.928719E-1
4/7/2025  13:11:16.748849	1.919159E-1
4/7/2025  13:11:16.749349	1.943058E-1
4/7/2025  13:11:16.749849	1.913014E-1
4/7/2025  13:11:16.750349	1.889798E-1
4/7/2025  13:11:16.750849	1.833807E-1
4/7/2025  13:11:16.751349	1.802397E-1
4/7/2025  13:11:16.751849	1.793520E-1
4/7/2025  13:11:16.752349	1.739577E-1
4/7/2025  13:11:16.752849	1.683586E-1
4/7/2025  13:11:16.753349	1.678123E-1
4/7/2025  13:11:16.753849	1.645348E-1
4/7/2025  13:11:16.754349	1.592770E-1
4/7/2025  13:11:16.754849	1.564092E-1
4/7/2025  13:11:16.755349	1.499224E-1
4/7/2025  13:11:16.755849	1.461669E-1
4/7/2025  13:11:16.756349	1.477373E-1
4/7/2025  13:11:16.756849	1.504686E-1
4/7/2025  13:11:16.757349	1.465765E-1
4/7/2025  13:11:16.757849	1.443232E-1
4/7/2025  13:11:16.758349	1.474642E-1
4/7/2025  13:11:16.758849	1.469862E-1
4/7/2025  13:11:16.759349	1.524488E-1
4/7/2025  13:11:16.759849	1.504004E-1
4/7/2025  13:11:16.760349	1.569554E-1
4/7/2025  13:11:16.760849	1.576383E-1
4/7/2025  13:11:16.761349	1.487616E-1
4/7/2025  13:11:16.761849	1.727969E-1
4/7/2025  13:11:16.762349	1.604378E-1
4/7/2025  13:11:16.762849	1.681537E-1
4/7/2025  13:11:16.763349	1.788057E-1
4/7/2025  13:11:16.763849	1.750502E-1
4/7/2025  13:11:16.764349	1.727286E-1
4/7/2025  13:11:16.764849	1.851560E-1
4/7/2025  13:11:16.765349	1.842683E-1
4/7/2025  13:11:16.765849	1.837904E-1
4/7/2025  13:11:16.766349	1.957397E-1
4/7/2025  13:11:16.766849	1.885701E-1
4/7/2025  13:11:16.767349	1.923939E-1
4/7/2025  13:11:16.767849	1.885701E-1
4/7/2025  13:11:16.768349	1.905503E-1
4/7/2025  13:11:16.768849	1.933499E-1
4/7/2025  13:11:16.769349	1.938278E-1
4/7/2025  13:11:16.769849	1.908234E-1
4/7/2025  13:11:16.770349	1.980613E-1
4/7/2025  13:11:16.770849	1.865216E-1
4/7/2025  13:11:16.771349	1.866582E-1
4/7/2025  13:11:16.771849	1.836538E-1
4/7/2025  13:11:16.772349	1.831075E-1
4/7/2025  13:11:16.772849	1.796934E-1
4/7/2025  13:11:16.773349	1.765524E-1
4/7/2025  13:11:16.773849	1.699973E-1
4/7/2025  13:11:16.774349	1.705436E-1
4/7/2025  13:11:16.774849	1.611889E-1
4/7/2025  13:11:16.775349	1.592770E-1
4/7/2025  13:11:16.775849	1.570237E-1
4/7/2025  13:11:16.776349	1.616669E-1
4/7/2025  13:11:16.776849	1.551118E-1
4/7/2025  13:11:16.777349	1.569554E-1
4/7/2025  13:11:16.777849	1.614621E-1
4/7/2025  13:11:16.778349	1.605744E-1
4/7/2025  13:11:16.778849	1.618035E-1
4/7/2025  13:11:16.779349	1.598233E-1
4/7/2025  13:11:16.779849	1.570237E-1
4/7/2025  13:11:16.780349	1.622815E-1
4/7/2025  13:11:16.780849	1.612572E-1
4/7/2025  13:11:16.781349	1.708167E-1
4/7/2025  13:11:16.781849	1.605061E-1
4/7/2025  13:11:16.782349	1.756648E-1
4/7/2025  13:11:16.782849	1.765524E-1
4/7/2025  13:11:16.783349	1.753916E-1
4/7/2025  13:11:16.783849	1.788740E-1
4/7/2025  13:11:16.784349	1.754599E-1
4/7/2025  13:11:16.784849	1.825613E-1
4/7/2025  13:11:16.785349	1.830392E-1
4/7/2025  13:11:16.785849	1.880921E-1
4/7/2025  13:11:16.786349	1.898675E-1
4/7/2025  13:11:16.786849	1.936913E-1
4/7/2025  13:11:16.787349	1.963543E-1
4/7/2025  13:11:16.787849	1.956032E-1
4/7/2025  13:11:16.788349	1.951252E-1
4/7/2025  13:11:16.788849	1.937596E-1
4/7/2025  13:11:16.789349	1.921208E-1
4/7/2025  13:11:16.789849	1.882287E-1
4/7/2025  13:11:16.790349	1.823564E-1
4/7/2025  13:11:16.790849	1.844732E-1
4/7/2025  13:11:16.791349	1.815370E-1
4/7/2025  13:11:16.791849	1.861119E-1
4/7/2025  13:11:16.792349	1.781912E-1
4/7/2025  13:11:16.792849	1.811956E-1
4/7/2025  13:11:16.793349	1.766890E-1
4/7/2025  13:11:16.793849	1.705436E-1
4/7/2025  13:11:16.794349	1.656956E-1
4/7/2025  13:11:16.794849	1.639885E-1
4/7/2025  13:11:16.795349	1.557946E-1
4/7/2025  13:11:16.795849	1.668564E-1
4/7/2025  13:11:16.796349	1.570237E-1
4/7/2025  13:11:16.796849	1.547021E-1
4/7/2025  13:11:16.797349	1.634423E-1
4/7/2025  13:11:16.797849	1.524488E-1
4/7/2025  13:11:16.798349	1.510149E-1
4/7/2025  13:11:16.798849	1.535413E-1
4/7/2025  13:11:16.799349	1.633057E-1
4/7/2025  13:11:16.799849	1.579114E-1
4/7/2025  13:11:16.800349	1.582528E-1
4/7/2025  13:11:16.800849	1.574334E-1
4/7/2025  13:11:16.801349	1.711581E-1
4/7/2025  13:11:16.801849	1.588673E-1
4/7/2025  13:11:16.802349	1.682903E-1
4/7/2025  13:11:16.802849	1.670612E-1
4/7/2025  13:11:16.803349	1.684269E-1
4/7/2025  13:11:16.803849	1.761427E-1
4/7/2025  13:11:16.804349	1.746405E-1
4/7/2025  13:11:16.804849	1.868631E-1
4/7/2025  13:11:16.805349	1.921208E-1
4/7/2025  13:11:16.805849	1.897992E-1
4/7/2025  13:11:16.806349	1.932816E-1
4/7/2025  13:11:16.806849	1.975151E-1
4/7/2025  13:11:16.807349	1.924622E-1
4/7/2025  13:11:16.807849	1.937596E-1
4/7/2025  13:11:16.808349	1.926670E-1
4/7/2025  13:11:16.808849	1.919159E-1
4/7/2025  13:11:16.809349	1.872045E-1
4/7/2025  13:11:16.809849	1.862485E-1
4/7/2025  13:11:16.810349	1.921208E-1
4/7/2025  13:11:16.810849	1.820150E-1
4/7/2025  13:11:16.811349	1.833124E-1
4/7/2025  13:11:16.811849	1.881604E-1
4/7/2025  13:11:16.812349	1.786009E-1
4/7/2025  13:11:16.812849	1.765524E-1
4/7/2025  13:11:16.813349	1.635788E-1
4/7/2025  13:11:16.813849	1.641934E-1
4/7/2025  13:11:16.814349	1.625546E-1
4/7/2025  13:11:16.814849	1.534048E-1
4/7/2025  13:11:16.815349	1.425479E-1
4/7/2025  13:11:16.815849	1.495127E-1
4/7/2025  13:11:16.816349	1.495810E-1
4/7/2025  13:11:16.816849	1.513563E-1
4/7/2025  13:11:16.817349	1.491030E-1
4/7/2025  13:11:16.817849	1.518343E-1
4/7/2025  13:11:16.818349	1.508783E-1
4/7/2025  13:11:16.818849	1.511515E-1
4/7/2025  13:11:16.819349	1.499224E-1
4/7/2025  13:11:16.819849	1.496492E-1
4/7/2025  13:11:16.820349	1.553167E-1
4/7/2025  13:11:16.820849	1.609841E-1
4/7/2025  13:11:16.821349	1.768256E-1
4/7/2025  13:11:16.821849	1.565458E-1
4/7/2025  13:11:16.822349	1.634423E-1
4/7/2025  13:11:16.822849	1.618718E-1
4/7/2025  13:11:16.823349	1.683586E-1
4/7/2025  13:11:16.823849	1.855657E-1
4/7/2025  13:11:16.824349	1.752551E-1
4/7/2025  13:11:16.824849	1.741626E-1
4/7/2025  13:11:16.825349	1.833807E-1
4/7/2025  13:11:16.825849	1.813322E-1
4/7/2025  13:11:16.826349	1.863168E-1
4/7/2025  13:11:16.826849	1.849511E-1
4/7/2025  13:11:16.827349	1.872727E-1
4/7/2025  13:11:16.827849	1.848829E-1
4/7/2025  13:11:16.828349	1.811273E-1
4/7/2025  13:11:16.828849	1.768256E-1
4/7/2025  13:11:16.829349	1.759379E-1
4/7/2025  13:11:16.829849	1.802397E-1
4/7/2025  13:11:16.830349	1.792154E-1
4/7/2025  13:11:16.830849	1.749137E-1
4/7/2025  13:11:16.831349	1.759379E-1
4/7/2025  13:11:16.831849	1.736846E-1
4/7/2025  13:11:16.832349	1.693145E-1
4/7/2025  13:11:16.832849	1.700656E-1
4/7/2025  13:11:16.833349	1.651493E-1
4/7/2025  13:11:16.833849	1.570237E-1
4/7/2025  13:11:16.834349	1.671295E-1
4/7/2025  13:11:16.834849	1.579114E-1
4/7/2025  13:11:16.835349	1.547704E-1
4/7/2025  13:11:16.835849	1.533365E-1
4/7/2025  13:11:16.836349	1.488981E-1
4/7/2025  13:11:16.836849	1.482836E-1
4/7/2025  13:11:16.837349	1.484202E-1
4/7/2025  13:11:16.837849	1.510832E-1
4/7/2025  13:11:16.838349	1.488981E-1
4/7/2025  13:11:16.838849	1.538827E-1
4/7/2025  13:11:16.839349	1.586625E-1
4/7/2025  13:11:16.839849	1.561361E-1
4/7/2025  13:11:16.840349	1.562726E-1
4/7/2025  13:11:16.840849	1.592770E-1
4/7/2025  13:11:16.841349	1.505369E-1
4/7/2025  13:11:16.841849	1.544290E-1
4/7/2025  13:11:16.842349	1.642616E-1
4/7/2025  13:11:16.842849	1.595502E-1
4/7/2025  13:11:16.843349	1.670612E-1
4/7/2025  13:11:16.843849	1.785326E-1
4/7/2025  13:11:16.844349	1.932816E-1
4/7/2025  13:11:16.844849	1.855657E-1
4/7/2025  13:11:16.845349	1.914380E-1
4/7/2025  13:11:16.845849	1.919842E-1
4/7/2025  13:11:16.846349	1.884335E-1
4/7/2025  13:11:16.846849	1.923939E-1
4/7/2025  13:11:16.847349	1.923256E-1
4/7/2025  13:11:16.847849	1.916428E-1
4/7/2025  13:11:16.848349	1.930084E-1
4/7/2025  13:11:16.848849	1.930767E-1
4/7/2025  13:11:16.849349	1.945789E-1
4/7/2025  13:11:16.849849	1.896626E-1
4/7/2025  13:11:16.850349	1.942375E-1
4/7/2025  13:11:16.850849	1.811273E-1
4/7/2025  13:11:16.851349	1.846780E-1
4/7/2025  13:11:16.851849	1.846780E-1
4/7/2025  13:11:16.852349	1.832441E-1
4/7/2025  13:11:16.852849	1.811273E-1
4/7/2025  13:11:16.853349	1.811956E-1
4/7/2025  13:11:16.853849	1.739577E-1
4/7/2025  13:11:16.854349	1.825613E-1
4/7/2025  13:11:16.854849	1.680854E-1
4/7/2025  13:11:16.855349	1.655590E-1
4/7/2025  13:11:16.855849	1.609158E-1
4/7/2025  13:11:16.856349	1.598916E-1
4/7/2025  13:11:16.856849	1.626229E-1
4/7/2025  13:11:16.857349	1.614621E-1
4/7/2025  13:11:16.857849	1.641251E-1
4/7/2025  13:11:16.858349	1.747771E-1
4/7/2025  13:11:16.858849	1.702022E-1
4/7/2025  13:11:16.859349	1.720458E-1
4/7/2025  13:11:16.859849	1.727969E-1
4/7/2025  13:11:16.860349	1.723872E-1
4/7/2025  13:11:16.860849	1.777815E-1
4/7/2025  13:11:16.861349	1.820150E-1
4/7/2025  13:11:16.861849	1.808542E-1
4/7/2025  13:11:16.862349	1.969688E-1
4/7/2025  13:11:16.862849	1.934181E-1
4/7/2025  13:11:16.863349	1.989490E-1
4/7/2025  13:11:16.863849	1.938961E-1
4/7/2025  13:11:16.864349	2.029777E-1
4/7/2025  13:11:16.864849	2.147905E-1
4/7/2025  13:11:16.865349	2.064600E-1
4/7/2025  13:11:16.865849	2.132200E-1
4/7/2025  13:11:16.866349	2.255791E-1
4/7/2025  13:11:16.866849	2.196385E-1
4/7/2025  13:11:16.867349	2.179997E-1
4/7/2025  13:11:16.867849	2.164975E-1
4/7/2025  13:11:16.868349	2.156099E-1
4/7/2025  13:11:16.868849	2.144491E-1
4/7/2025  13:11:16.869349	2.158830E-1
4/7/2025  13:11:16.869849	2.130834E-1
4/7/2025  13:11:16.870349	2.060504E-1
4/7/2025  13:11:16.870849	2.080988E-1
4/7/2025  13:11:16.871349	2.072111E-1
4/7/2025  13:11:16.871849	2.064600E-1
4/7/2025  13:11:16.872349	2.009975E-1
4/7/2025  13:11:16.872849	1.953983E-1
4/7/2025  13:11:16.873349	1.962177E-1
4/7/2025  13:11:16.873849	1.939644E-1
4/7/2025  13:11:16.874349	1.938278E-1
4/7/2025  13:11:16.874849	1.792837E-1
4/7/2025  13:11:16.875349	1.874093E-1
4/7/2025  13:11:16.875849	1.739577E-1
4/7/2025  13:11:16.876349	1.680854E-1
4/7/2025  13:11:16.876849	1.760745E-1
4/7/2025  13:11:16.877349	1.762110E-1
4/7/2025  13:11:16.877849	1.758013E-1
4/7/2025  13:11:16.878349	1.790789E-1
4/7/2025  13:11:16.878849	1.829710E-1
4/7/2025  13:11:16.879349	1.848146E-1
4/7/2025  13:11:16.879849	1.875459E-1
4/7/2025  13:11:16.880349	1.859754E-1
4/7/2025  13:11:16.880849	1.901406E-1
4/7/2025  13:11:16.881349	1.775084E-1
4/7/2025  13:11:16.881849	1.898675E-1
4/7/2025  13:11:16.882349	1.962177E-1
4/7/2025  13:11:16.882849	1.925988E-1
4/7/2025  13:11:16.883349	2.040702E-1
4/7/2025  13:11:16.883849	2.100790E-1
4/7/2025  13:11:16.884349	2.057772E-1
4/7/2025  13:11:16.884849	2.094645E-1
4/7/2025  13:11:16.885349	1.999732E-1
4/7/2025  13:11:16.885849	2.094645E-1
4/7/2025  13:11:16.886349	2.070746E-1
4/7/2025  13:11:16.886849	2.136980E-1
4/7/2025  13:11:16.887349	2.139711E-1
4/7/2025  13:11:16.887849	2.169072E-1
4/7/2025  13:11:16.888349	2.156781E-1
4/7/2025  13:11:16.888849	2.126737E-1
4/7/2025  13:11:16.889349	2.091230E-1
4/7/2025  13:11:16.889849	2.068015E-1
4/7/2025  13:11:16.890349	2.039336E-1
4/7/2025  13:11:16.890849	2.039336E-1
4/7/2025  13:11:16.891349	1.996318E-1
4/7/2025  13:11:16.891849	2.007243E-1
4/7/2025  13:11:16.892349	1.971737E-1
4/7/2025  13:11:16.892849	1.964908E-1
4/7/2025  13:11:16.893349	1.873410E-1
4/7/2025  13:11:16.893849	1.854291E-1
4/7/2025  13:11:16.894349	1.751185E-1
4/7/2025  13:11:16.894849	1.750502E-1
4/7/2025  13:11:16.895349	1.663784E-1
4/7/2025  13:11:16.895849	1.620766E-1
4/7/2025  13:11:16.896349	1.633740E-1
4/7/2025  13:11:16.896849	1.648079E-1
4/7/2025  13:11:16.897349	1.747088E-1
4/7/2025  13:11:16.897849	1.672661E-1
4/7/2025  13:11:16.898349	1.681537E-1
4/7/2025  13:11:16.898849	1.684951E-1
4/7/2025  13:11:16.899349	1.733432E-1
4/7/2025  13:11:16.899849	1.691097E-1
4/7/2025  13:11:16.900349	1.745040E-1
4/7/2025  13:11:16.900849	1.745040E-1
4/7/2025  13:11:16.901349	1.861119E-1
4/7/2025  13:11:16.901849	1.865216E-1
4/7/2025  13:11:16.902349	1.949886E-1
4/7/2025  13:11:16.902849	1.800348E-1
4/7/2025  13:11:16.903349	1.940327E-1
4/7/2025  13:11:16.903849	1.903454E-1
4/7/2025  13:11:16.904349	2.082354E-1
4/7/2025  13:11:16.904849	2.021583E-1
4/7/2025  13:11:16.905349	1.951252E-1
4/7/2025  13:11:16.905849	2.057089E-1
4/7/2025  13:11:16.906349	2.079623E-1
4/7/2025  13:11:16.906849	2.115129E-1
4/7/2025  13:11:16.907349	2.121957E-1
4/7/2025  13:11:16.907849	2.104887E-1
4/7/2025  13:11:16.908349	2.113081E-1
4/7/2025  13:11:16.908849	2.078257E-1
4/7/2025  13:11:16.909349	2.099424E-1
4/7/2025  13:11:16.909849	2.053675E-1
4/7/2025  13:11:16.910349	2.058455E-1
4/7/2025  13:11:16.910849	2.011340E-1
4/7/2025  13:11:16.911349	2.030459E-1
4/7/2025  13:11:16.911849	2.032508E-1
4/7/2025  13:11:16.912349	2.012023E-1
4/7/2025  13:11:16.912849	1.936913E-1
4/7/2025  13:11:16.913349	1.927353E-1
4/7/2025  13:11:16.913849	1.930767E-1
4/7/2025  13:11:16.914349	1.867948E-1
4/7/2025  13:11:16.914849	1.807177E-1
4/7/2025  13:11:16.915349	1.823564E-1
4/7/2025  13:11:16.915849	1.719775E-1
4/7/2025  13:11:16.916349	1.776450E-1
4/7/2025  13:11:16.916849	1.758013E-1
4/7/2025  13:11:16.917349	1.746405E-1
4/7/2025  13:11:16.917849	1.744357E-1
4/7/2025  13:11:16.918349	1.776450E-1
4/7/2025  13:11:16.918849	1.763476E-1
4/7/2025  13:11:16.919349	1.760062E-1
4/7/2025  13:11:16.919849	1.768938E-1
4/7/2025  13:11:16.920349	1.820833E-1
4/7/2025  13:11:16.920849	1.874776E-1
4/7/2025  13:11:16.921349	1.843366E-1
4/7/2025  13:11:16.921849	1.974468E-1
4/7/2025  13:11:16.922349	1.967640E-1
4/7/2025  13:11:16.922849	1.825613E-1
4/7/2025  13:11:16.923349	1.870679E-1
4/7/2025  13:11:16.923849	1.985393E-1
4/7/2025  13:11:16.924349	2.018169E-1
4/7/2025  13:11:16.924849	2.022265E-1
4/7/2025  13:11:16.925349	2.078257E-1
4/7/2025  13:11:16.925849	2.072794E-1
4/7/2025  13:11:16.926349	2.158147E-1
4/7/2025  13:11:16.926849	2.082354E-1
4/7/2025  13:11:16.927349	2.076891E-1
4/7/2025  13:11:16.927849	2.065283E-1
4/7/2025  13:11:16.928349	2.046847E-1
4/7/2025  13:11:16.928849	2.032508E-1
4/7/2025  13:11:16.929349	2.040019E-1
4/7/2025  13:11:16.929849	2.020900E-1
4/7/2025  13:11:16.930349	1.973102E-1
4/7/2025  13:11:16.930849	1.992221E-1
4/7/2025  13:11:16.931349	1.946472E-1
4/7/2025  13:11:16.931849	1.943058E-1
4/7/2025  13:11:16.932349	1.895943E-1
4/7/2025  13:11:16.932849	1.957397E-1
4/7/2025  13:11:16.933349	1.798983E-1
4/7/2025  13:11:16.933849	1.775767E-1
4/7/2025  13:11:16.934349	1.782595E-1
4/7/2025  13:11:16.934849	1.724555E-1
4/7/2025  13:11:16.935349	1.676757E-1
4/7/2025  13:11:16.935849	1.579797E-1
4/7/2025  13:11:16.936349	1.590722E-1
4/7/2025  13:11:16.936849	1.656956E-1
4/7/2025  13:11:16.937349	1.669929E-1
4/7/2025  13:11:16.937849	1.663101E-1
4/7/2025  13:11:16.938349	1.689048E-1
4/7/2025  13:11:16.938849	1.752551E-1
4/7/2025  13:11:16.939349	1.793520E-1
4/7/2025  13:11:16.939849	1.768256E-1
4/7/2025  13:11:16.940349	1.770987E-1
4/7/2025  13:11:16.940849	1.807859E-1
4/7/2025  13:11:16.941349	1.952618E-1
4/7/2025  13:11:16.941849	1.723872E-1
4/7/2025  13:11:16.942349	1.863851E-1
4/7/2025  13:11:16.942849	1.869313E-1
4/7/2025  13:11:16.943349	1.979930E-1
4/7/2025  13:11:16.943849	2.100107E-1
4/7/2025  13:11:16.944349	2.072111E-1
4/7/2025  13:11:16.944849	2.042067E-1
4/7/2025  13:11:16.945349	2.084402E-1
4/7/2025  13:11:16.945849	2.130151E-1
4/7/2025  13:11:16.946349	2.272861E-1
4/7/2025  13:11:16.946849	2.149270E-1
4/7/2025  13:11:16.947349	2.164292E-1
4/7/2025  13:11:16.947849	2.183411E-1
4/7/2025  13:11:16.948349	2.198434E-1
4/7/2025  13:11:16.948849	2.171121E-1
4/7/2025  13:11:16.949349	2.121275E-1
4/7/2025  13:11:16.949849	2.148588E-1
4/7/2025  13:11:16.950349	2.040019E-1
4/7/2025  13:11:16.950849	2.070063E-1
4/7/2025  13:11:16.951349	2.042750E-1
4/7/2025  13:11:16.951849	2.021583E-1
4/7/2025  13:11:16.952349	1.997001E-1
4/7/2025  13:11:16.952849	1.999050E-1
4/7/2025  13:11:16.953349	1.964226E-1
4/7/2025  13:11:16.953849	1.864534E-1
4/7/2025  13:11:16.954349	1.843366E-1
4/7/2025  13:11:16.954849	1.837221E-1
4/7/2025  13:11:16.955349	1.879556E-1
4/7/2025  13:11:16.955849	1.637154E-1
4/7/2025  13:11:16.956349	1.643299E-1
4/7/2025  13:11:16.956849	1.761427E-1
4/7/2025  13:11:16.957349	1.697925E-1
4/7/2025  13:11:16.957849	1.770304E-1
4/7/2025  13:11:16.958349	1.734115E-1
4/7/2025  13:11:16.958849	1.739577E-1
4/7/2025  13:11:16.959349	1.783278E-1
4/7/2025  13:11:16.959849	1.793520E-1
4/7/2025  13:11:16.960349	1.806494E-1
4/7/2025  13:11:16.960849	1.846097E-1
4/7/2025  13:11:16.961349	1.877507E-1
4/7/2025  13:11:16.961849	2.042750E-1
4/7/2025  13:11:16.962349	1.933499E-1
4/7/2025  13:11:16.962849	1.970371E-1
4/7/2025  13:11:16.963349	1.981296E-1
4/7/2025  13:11:16.963849	1.963543E-1
4/7/2025  13:11:16.964349	1.965591E-1
4/7/2025  13:11:16.964849	2.051627E-1
4/7/2025  13:11:16.965349	2.105570E-1
4/7/2025  13:11:16.965849	2.179315E-1
4/7/2025  13:11:16.966349	2.282421E-1
4/7/2025  13:11:16.966849	2.205945E-1
4/7/2025  13:11:16.967349	2.194337E-1
4/7/2025  13:11:16.967849	2.198434E-1
4/7/2025  13:11:16.968349	2.182046E-1
4/7/2025  13:11:16.968849	2.145173E-1
4/7/2025  13:11:16.969349	2.141759E-1
4/7/2025  13:11:16.969849	2.126054E-1
4/7/2025  13:11:16.970349	2.115812E-1
4/7/2025  13:11:16.970849	2.102838E-1
4/7/2025  13:11:16.971349	2.121275E-1
4/7/2025  13:11:16.971849	2.082354E-1
4/7/2025  13:11:16.972349	2.080988E-1
4/7/2025  13:11:16.972849	2.062552E-1
4/7/2025  13:11:16.973349	1.986759E-1
4/7/2025  13:11:16.973849	1.960811E-1
4/7/2025  13:11:16.974349	1.919842E-1
4/7/2025  13:11:16.974849	1.906186E-1
4/7/2025  13:11:16.975349	1.842000E-1
4/7/2025  13:11:16.975849	1.759379E-1
4/7/2025  13:11:16.976349	1.811273E-1
4/7/2025  13:11:16.976849	1.766890E-1
4/7/2025  13:11:16.977349	1.743674E-1
4/7/2025  13:11:16.977849	1.773718E-1
4/7/2025  13:11:16.978349	1.762793E-1
4/7/2025  13:11:16.978849	1.776450E-1
4/7/2025  13:11:16.979349	1.777132E-1
4/7/2025  13:11:16.979849	1.816053E-1
4/7/2025  13:11:16.980349	1.831758E-1
4/7/2025  13:11:16.980849	1.876142E-1
4/7/2025  13:11:16.981349	1.953300E-1
4/7/2025  13:11:16.981849	1.874093E-1
4/7/2025  13:11:16.982349	1.839269E-1
4/7/2025  13:11:16.982849	1.876142E-1
4/7/2025  13:11:16.983349	1.877507E-1
4/7/2025  13:11:16.983849	2.126737E-1
4/7/2025  13:11:16.984349	2.007243E-1
4/7/2025  13:11:16.984849	2.068697E-1
4/7/2025  13:11:16.985349	2.117178E-1
4/7/2025  13:11:16.985849	2.124006E-1
4/7/2025  13:11:16.986349	2.106935E-1
4/7/2025  13:11:16.986849	2.111032E-1
4/7/2025  13:11:16.987349	2.151319E-1
4/7/2025  13:11:16.987849	2.157464E-1
4/7/2025  13:11:16.988349	2.127420E-1
4/7/2025  13:11:16.988849	2.168389E-1
4/7/2025  13:11:16.989349	2.145856E-1
4/7/2025  13:11:16.989849	2.135614E-1
4/7/2025  13:11:16.990349	2.090548E-1
4/7/2025  13:11:16.990849	2.023631E-1
4/7/2025  13:11:16.991349	2.031142E-1
4/7/2025  13:11:16.991849	2.074843E-1
4/7/2025  13:11:16.992349	2.016120E-1
4/7/2025  13:11:16.992849	1.957397E-1
4/7/2025  13:11:16.993349	1.934864E-1
4/7/2025  13:11:16.993849	1.908234E-1
4/7/2025  13:11:16.994349	1.846097E-1
4/7/2025  13:11:16.994849	1.839952E-1
4/7/2025  13:11:16.995349	1.682220E-1
4/7/2025  13:11:16.995849	1.808542E-1
4/7/2025  13:11:16.996349	1.816053E-1
4/7/2025  13:11:16.996849	1.671978E-1
4/7/2025  13:11:16.997349	1.742308E-1
4/7/2025  13:11:16.997849	1.740260E-1
4/7/2025  13:11:16.998349	1.777815E-1
4/7/2025  13:11:16.998849	1.706802E-1
4/7/2025  13:11:16.999349	1.827661E-1
4/7/2025  13:11:16.999849	1.774401E-1
4/7/2025  13:11:17.000349	1.790789E-1
4/7/2025  13:11:17.000849	1.853608E-1
4/7/2025  13:11:17.001349	1.864534E-1
4/7/2025  13:11:17.001849	1.846780E-1
4/7/2025  13:11:17.002349	1.883653E-1
4/7/2025  13:11:17.002849	2.024997E-1
4/7/2025  13:11:17.003349	2.087816E-1
4/7/2025  13:11:17.003849	2.087134E-1
4/7/2025  13:11:17.004349	2.082354E-1
4/7/2025  13:11:17.004849	2.108984E-1
4/7/2025  13:11:17.005349	2.229843E-1
4/7/2025  13:11:17.005849	2.307002E-1
4/7/2025  13:11:17.006349	2.263984E-1
4/7/2025  13:11:17.006849	2.270130E-1
4/7/2025  13:11:17.007349	2.332267E-1
4/7/2025  13:11:17.007849	2.269447E-1
4/7/2025  13:11:17.008349	2.270130E-1
4/7/2025  13:11:17.008849	2.207310E-1
4/7/2025  13:11:17.009349	2.238720E-1
4/7/2025  13:11:17.009849	2.205262E-1
4/7/2025  13:11:17.010349	2.179997E-1
4/7/2025  13:11:17.010849	2.135614E-1
4/7/2025  13:11:17.011349	2.169072E-1
4/7/2025  13:11:17.011849	2.148588E-1
4/7/2025  13:11:17.012349	2.118543E-1
4/7/2025  13:11:17.012849	2.056407E-1
4/7/2025  13:11:17.013349	2.012706E-1
4/7/2025  13:11:17.013849	1.984710E-1
4/7/2025  13:11:17.014349	1.885018E-1
4/7/2025  13:11:17.014849	2.000415E-1
4/7/2025  13:11:17.015349	1.871362E-1
4/7/2025  13:11:17.015849	1.893895E-1
4/7/2025  13:11:17.016349	1.853608E-1
4/7/2025  13:11:17.016849	1.826296E-1
4/7/2025  13:11:17.017349	1.817419E-1
4/7/2025  13:11:17.017849	1.804445E-1
4/7/2025  13:11:17.018349	1.798300E-1
4/7/2025  13:11:17.018849	1.804445E-1
4/7/2025  13:11:17.019349	1.833807E-1
4/7/2025  13:11:17.019849	1.880921E-1
4/7/2025  13:11:17.020349	1.866582E-1
4/7/2025  13:11:17.020849	1.899357E-1
4/7/2025  13:11:17.021349	1.922573E-1
4/7/2025  13:11:17.021849	2.005878E-1
4/7/2025  13:11:17.022349	1.921891E-1
4/7/2025  13:11:17.022849	1.979248E-1
4/7/2025  13:11:17.023349	1.955349E-1
4/7/2025  13:11:17.023849	2.132883E-1
4/7/2025  13:11:17.024349	2.182046E-1
4/7/2025  13:11:17.024849	2.096010E-1
4/7/2025  13:11:17.025349	2.117861E-1
4/7/2025  13:11:17.025849	2.152002E-1
4/7/2025  13:11:17.026349	2.212773E-1
4/7/2025  13:11:17.026849	2.223015E-1
4/7/2025  13:11:17.027349	2.223698E-1
4/7/2025  13:11:17.027849	2.231892E-1
4/7/2025  13:11:17.028349	2.288566E-1
4/7/2025  13:11:17.028849	2.257156E-1
4/7/2025  13:11:17.029349	2.268081E-1
4/7/2025  13:11:17.029849	2.235989E-1
4/7/2025  13:11:17.030349	2.201165E-1
4/7/2025  13:11:17.030849	2.199799E-1
4/7/2025  13:11:17.031349	2.192971E-1
4/7/2025  13:11:17.031849	2.169072E-1
4/7/2025  13:11:17.032349	2.136980E-1
4/7/2025  13:11:17.032849	2.169755E-1
4/7/2025  13:11:17.033349	2.132883E-1
4/7/2025  13:11:17.033849	2.079623E-1
4/7/2025  13:11:17.034349	1.975151E-1
4/7/2025  13:11:17.034849	1.859754E-1
4/7/2025  13:11:17.035349	2.007243E-1
4/7/2025  13:11:17.035849	1.844049E-1
4/7/2025  13:11:17.036349	1.882287E-1
4/7/2025  13:11:17.036849	1.822881E-1
4/7/2025  13:11:17.037349	1.802397E-1
4/7/2025  13:11:17.037849	1.848829E-1
4/7/2025  13:11:17.038349	1.830392E-1
4/7/2025  13:11:17.038849	1.829027E-1
4/7/2025  13:11:17.039349	1.832441E-1
4/7/2025  13:11:17.039849	1.864534E-1
4/7/2025  13:11:17.040349	1.869313E-1
4/7/2025  13:11:17.040849	1.895261E-1
4/7/2025  13:11:17.041349	1.807177E-1
4/7/2025  13:11:17.041849	1.859071E-1
4/7/2025  13:11:17.042349	2.023631E-1
4/7/2025  13:11:17.042849	2.020217E-1
4/7/2025  13:11:17.043349	1.978565E-1
4/7/2025  13:11:17.043849	2.128786E-1
4/7/2025  13:11:17.044349	2.196385E-1
4/7/2025  13:11:17.044849	2.107618E-1
4/7/2025  13:11:17.045349	2.130151E-1
4/7/2025  13:11:17.045849	2.152002E-1
4/7/2025  13:11:17.046349	2.220284E-1
4/7/2025  13:11:17.046849	2.121957E-1
4/7/2025  13:11:17.047349	2.230526E-1
4/7/2025  13:11:17.047849	2.216187E-1
4/7/2025  13:11:17.048349	2.206627E-1
4/7/2025  13:11:17.048849	2.245548E-1
4/7/2025  13:11:17.049349	2.209359E-1
4/7/2025  13:11:17.049849	2.187508E-1
4/7/2025  13:11:17.050349	2.207310E-1
4/7/2025  13:11:17.050849	2.164292E-1
4/7/2025  13:11:17.051349	2.162244E-1
4/7/2025  13:11:17.051849	2.134931E-1
4/7/2025  13:11:17.052349	2.117861E-1
4/7/2025  13:11:17.052849	2.059821E-1
4/7/2025  13:11:17.053349	2.012706E-1
4/7/2025  13:11:17.053849	1.902089E-1
4/7/2025  13:11:17.054349	1.884335E-1
4/7/2025  13:11:17.054849	1.917111E-1
4/7/2025  13:11:17.055349	1.837904E-1
4/7/2025  13:11:17.055849	1.965591E-1
4/7/2025  13:11:17.056349	1.810591E-1
4/7/2025  13:11:17.056849	1.792837E-1
4/7/2025  13:11:17.057349	1.775084E-1
4/7/2025  13:11:17.057849	1.769621E-1
4/7/2025  13:11:17.058349	1.783278E-1
4/7/2025  13:11:17.058849	1.833807E-1
4/7/2025  13:11:17.059349	1.839269E-1
4/7/2025  13:11:17.059849	1.839952E-1
4/7/2025  13:11:17.060349	1.872045E-1
4/7/2025  13:11:17.060849	1.858388E-1
4/7/2025  13:11:17.061349	2.028411E-1
4/7/2025  13:11:17.061849	1.828344E-1
4/7/2025  13:11:17.062349	2.072111E-1
4/7/2025  13:11:17.062849	1.869313E-1
4/7/2025  13:11:17.063349	1.938961E-1
4/7/2025  13:11:17.063849	2.029094E-1
4/7/2025  13:11:17.064349	2.078257E-1
4/7/2025  13:11:17.064849	2.117178E-1
4/7/2025  13:11:17.065349	2.137662E-1
4/7/2025  13:11:17.065849	2.136297E-1
4/7/2025  13:11:17.066349	2.281738E-1
4/7/2025  13:11:17.066849	2.165658E-1
4/7/2025  13:11:17.067349	2.216187E-1
4/7/2025  13:11:17.067849	2.204579E-1
4/7/2025  13:11:17.068349	2.179997E-1
4/7/2025  13:11:17.068849	2.165658E-1
4/7/2025  13:11:17.069349	2.184094E-1
4/7/2025  13:11:17.069849	2.203213E-1
4/7/2025  13:11:17.070349	2.192971E-1
4/7/2025  13:11:17.070849	2.118543E-1
4/7/2025  13:11:17.071349	2.062552E-1
4/7/2025  13:11:17.071849	2.089182E-1
4/7/2025  13:11:17.072349	2.014754E-1
4/7/2025  13:11:17.072849	2.001098E-1
4/7/2025  13:11:17.073349	1.951252E-1
4/7/2025  13:11:17.073849	2.010657E-1
4/7/2025  13:11:17.074349	1.863851E-1
4/7/2025  13:11:17.074849	1.987442E-1
4/7/2025  13:11:17.075349	1.783961E-1
4/7/2025  13:11:17.075849	1.860437E-1
4/7/2025  13:11:17.076349	1.722507E-1
4/7/2025  13:11:17.076849	1.710899E-1
4/7/2025  13:11:17.077349	1.703388E-1
4/7/2025  13:11:17.077849	1.737529E-1
4/7/2025  13:11:17.078349	1.715678E-1
4/7/2025  13:11:17.078849	1.767573E-1
4/7/2025  13:11:17.079349	1.779864E-1
4/7/2025  13:11:17.079849	1.802397E-1
4/7/2025  13:11:17.080349	1.811956E-1
4/7/2025  13:11:17.080849	1.805811E-1
4/7/2025  13:11:17.081349	1.811273E-1
4/7/2025  13:11:17.081849	1.839952E-1
4/7/2025  13:11:17.082349	1.833124E-1
4/7/2025  13:11:17.082849	1.979930E-1
4/7/2025  13:11:17.083349	1.958763E-1
4/7/2025  13:11:17.083849	2.035239E-1
4/7/2025  13:11:17.084349	2.072794E-1
4/7/2025  13:11:17.084849	2.023631E-1
4/7/2025  13:11:17.085349	2.108301E-1
4/7/2025  13:11:17.085849	2.169072E-1
4/7/2025  13:11:17.086349	2.102156E-1
4/7/2025  13:11:17.086849	2.212773E-1
4/7/2025  13:11:17.087349	2.283103E-1
4/7/2025  13:11:17.087849	2.196385E-1
4/7/2025  13:11:17.088349	2.197068E-1
4/7/2025  13:11:17.088849	2.208676E-1
4/7/2025  13:11:17.089349	2.139711E-1
4/7/2025  13:11:17.089849	2.115812E-1
4/7/2025  13:11:17.090349	2.152002E-1
4/7/2025  13:11:17.090849	2.071429E-1
4/7/2025  13:11:17.091349	2.093962E-1
4/7/2025  13:11:17.091849	2.072111E-1
4/7/2025  13:11:17.092349	2.043433E-1
4/7/2025  13:11:17.092849	2.033191E-1
4/7/2025  13:11:17.093349	1.978565E-1
4/7/2025  13:11:17.093849	2.029777E-1
4/7/2025  13:11:17.094349	1.884335E-1
4/7/2025  13:11:17.094849	1.857023E-1
4/7/2025  13:11:17.095349	1.829710E-1
4/7/2025  13:11:17.095849	1.766890E-1
4/7/2025  13:11:17.096349	1.762793E-1
4/7/2025  13:11:17.096849	1.803080E-1
4/7/2025  13:11:17.097349	1.913014E-1
4/7/2025  13:11:17.097849	1.785326E-1
4/7/2025  13:11:17.098349	1.768938E-1
4/7/2025  13:11:17.098849	1.809225E-1
4/7/2025  13:11:17.099349	1.805128E-1
4/7/2025  13:11:17.099849	1.793520E-1
4/7/2025  13:11:17.100349	1.822881E-1
4/7/2025  13:11:17.100849	1.857023E-1
4/7/2025  13:11:17.101349	1.882287E-1
4/7/2025  13:11:17.101849	1.956715E-1
4/7/2025  13:11:17.102349	1.929402E-1
4/7/2025  13:11:17.102849	1.938278E-1
4/7/2025  13:11:17.103349	1.990856E-1
4/7/2025  13:11:17.103849	1.996318E-1
4/7/2025  13:11:17.104349	2.138345E-1
4/7/2025  13:11:17.104849	2.104204E-1
4/7/2025  13:11:17.105349	2.091230E-1
4/7/2025  13:11:17.105849	2.279007E-1
4/7/2025  13:11:17.106349	2.137662E-1
4/7/2025  13:11:17.106849	2.230526E-1
4/7/2025  13:11:17.107349	2.183411E-1
4/7/2025  13:11:17.107849	2.214821E-1
4/7/2025  13:11:17.108349	2.179315E-1
4/7/2025  13:11:17.108849	2.160196E-1
4/7/2025  13:11:17.109349	2.156099E-1
4/7/2025  13:11:17.109849	2.160878E-1
4/7/2025  13:11:17.110349	2.130834E-1
4/7/2025  13:11:17.110849	2.152002E-1
4/7/2025  13:11:17.111349	2.091913E-1
4/7/2025  13:11:17.111849	2.017486E-1
4/7/2025  13:11:17.112349	1.968323E-1
4/7/2025  13:11:17.112849	1.961494E-1
4/7/2025  13:11:17.113349	1.907551E-1
4/7/2025  13:11:17.113849	1.887067E-1
4/7/2025  13:11:17.114349	1.816053E-1
4/7/2025  13:11:17.114849	1.888432E-1
4/7/2025  13:11:17.115349	1.786009E-1
4/7/2025  13:11:17.115849	1.838586E-1
4/7/2025  13:11:17.116349	1.779181E-1
4/7/2025  13:11:17.116849	1.748454E-1
4/7/2025  13:11:17.117349	1.721824E-1
4/7/2025  13:11:17.117849	1.713630E-1
4/7/2025  13:11:17.118349	1.744357E-1
4/7/2025  13:11:17.118849	1.741626E-1
4/7/2025  13:11:17.119349	1.838586E-1
4/7/2025  13:11:17.119849	1.826978E-1
4/7/2025  13:11:17.120349	1.850194E-1
4/7/2025  13:11:17.120849	1.826296E-1
4/7/2025  13:11:17.121349	1.832441E-1
4/7/2025  13:11:17.121849	1.889115E-1
4/7/2025  13:11:17.122349	1.878873E-1
4/7/2025  13:11:17.122849	1.966274E-1
4/7/2025  13:11:17.123349	2.013389E-1
4/7/2025  13:11:17.123849	2.079623E-1
4/7/2025  13:11:17.124349	1.969688E-1
4/7/2025  13:11:17.124849	2.121275E-1
4/7/2025  13:11:17.125349	2.130151E-1
4/7/2025  13:11:17.125849	2.159513E-1
4/7/2025  13:11:17.126349	2.094645E-1
4/7/2025  13:11:17.126849	2.178632E-1
4/7/2025  13:11:17.127349	2.246231E-1
4/7/2025  13:11:17.127849	2.230526E-1
4/7/2025  13:11:17.128349	2.258522E-1
4/7/2025  13:11:17.128849	2.224381E-1
4/7/2025  13:11:17.129349	2.230526E-1
4/7/2025  13:11:17.129849	2.181363E-1
4/7/2025  13:11:17.130349	2.139711E-1
4/7/2025  13:11:17.130849	2.113764E-1
4/7/2025  13:11:17.131349	2.103521E-1
4/7/2025  13:11:17.131849	2.085768E-1
4/7/2025  13:11:17.132349	2.105570E-1
4/7/2025  13:11:17.132849	2.044799E-1
4/7/2025  13:11:17.133349	2.042067E-1
4/7/2025  13:11:17.133849	1.938278E-1
4/7/2025  13:11:17.134349	1.892529E-1
4/7/2025  13:11:17.134849	1.897309E-1
4/7/2025  13:11:17.135349	1.783961E-1
4/7/2025  13:11:17.135849	1.797617E-1
4/7/2025  13:11:17.136349	1.792837E-1
4/7/2025  13:11:17.136849	1.844732E-1
4/7/2025  13:11:17.137349	1.798300E-1
4/7/2025  13:11:17.137849	1.851560E-1
4/7/2025  13:11:17.138349	1.874093E-1
4/7/2025  13:11:17.138849	1.871362E-1
4/7/2025  13:11:17.139349	1.878190E-1
4/7/2025  13:11:17.139849	1.887067E-1
4/7/2025  13:11:17.140349	1.911648E-1
4/7/2025  13:11:17.140849	1.895943E-1
4/7/2025  13:11:17.141349	1.882970E-1
4/7/2025  13:11:17.141849	1.929402E-1
4/7/2025  13:11:17.142349	1.952618E-1
4/7/2025  13:11:17.142849	2.033191E-1
4/7/2025  13:11:17.143349	1.965591E-1
4/7/2025  13:11:17.143849	2.111715E-1
4/7/2025  13:11:17.144349	2.076891E-1
4/7/2025  13:11:17.144849	2.214821E-1
4/7/2025  13:11:17.145349	2.110350E-1
4/7/2025  13:11:17.145849	2.167707E-1
4/7/2025  13:11:17.146349	2.255791E-1
4/7/2025  13:11:17.146849	2.292663E-1
4/7/2025  13:11:17.147349	2.274910E-1
4/7/2025  13:11:17.147849	2.274910E-1
4/7/2025  13:11:17.148349	2.317927E-1
4/7/2025  13:11:17.148849	2.283103E-1
4/7/2025  13:11:17.149349	2.263302E-1
4/7/2025  13:11:17.149849	2.227795E-1
4/7/2025  13:11:17.150349	2.227795E-1
4/7/2025  13:11:17.150849	2.205262E-1
4/7/2025  13:11:17.151349	2.196385E-1
4/7/2025  13:11:17.151849	2.211407E-1
4/7/2025  13:11:17.152349	2.137662E-1
4/7/2025  13:11:17.152849	2.132200E-1
4/7/2025  13:11:17.153349	2.106253E-1
4/7/2025  13:11:17.153849	2.048896E-1
4/7/2025  13:11:17.154349	1.989490E-1
4/7/2025  13:11:17.154849	1.870679E-1
4/7/2025  13:11:17.155349	1.882970E-1
4/7/2025  13:11:17.155849	1.807177E-1
4/7/2025  13:11:17.156349	1.760062E-1
4/7/2025  13:11:17.156849	1.781912E-1
4/7/2025  13:11:17.157349	1.783278E-1
4/7/2025  13:11:17.157849	1.798983E-1
4/7/2025  13:11:17.158349	1.822199E-1
4/7/2025  13:11:17.158849	1.901406E-1
4/7/2025  13:11:17.159349	1.792837E-1
4/7/2025  13:11:17.159849	1.780546E-1
4/7/2025  13:11:17.160349	1.803080E-1
4/7/2025  13:11:17.160849	1.801714E-1
4/7/2025  13:11:17.161349	1.818784E-1
4/7/2025  13:11:17.161849	1.943741E-1
4/7/2025  13:11:17.162349	1.834489E-1
4/7/2025  13:11:17.162849	1.824930E-1
4/7/2025  13:11:17.163349	2.042750E-1
4/7/2025  13:11:17.163849	1.887067E-1
4/7/2025  13:11:17.164349	1.904820E-1
4/7/2025  13:11:17.164849	1.988124E-1
4/7/2025  13:11:17.165349	2.122640E-1
4/7/2025  13:11:17.165849	2.051627E-1
4/7/2025  13:11:17.166349	2.090548E-1
4/7/2025  13:11:17.166849	2.070746E-1
4/7/2025  13:11:17.167349	2.080305E-1
4/7/2025  13:11:17.167849	2.082354E-1
4/7/2025  13:11:17.168349	2.042750E-1
4/7/2025  13:11:17.168849	1.976516E-1
4/7/2025  13:11:17.169349	2.010657E-1
4/7/2025  13:11:17.169849	1.960129E-1
4/7/2025  13:11:17.170349	1.955349E-1
4/7/2025  13:11:17.170849	1.909600E-1
4/7/2025  13:11:17.171349	1.905503E-1
4/7/2025  13:11:17.171849	1.923939E-1
4/7/2025  13:11:17.172349	1.846097E-1
4/7/2025  13:11:17.172849	1.817419E-1
4/7/2025  13:11:17.173349	1.704070E-1
4/7/2025  13:11:17.173849	1.647396E-1
4/7/2025  13:11:17.174349	1.615304E-1
4/7/2025  13:11:17.174849	1.562726E-1
4/7/2025  13:11:17.175349	1.484884E-1
4/7/2025  13:11:17.175849	1.572286E-1
4/7/2025  13:11:17.176349	1.521757E-1
4/7/2025  13:11:17.176849	1.506052E-1
4/7/2025  13:11:17.177349	1.449378E-1
4/7/2025  13:11:17.177849	1.385875E-1
4/7/2025  13:11:17.178349	1.370853E-1
4/7/2025  13:11:17.178849	1.335346E-1
4/7/2025  13:11:17.179349	1.349686E-1
4/7/2025  13:11:17.179849	1.407043E-1
4/7/2025  13:11:17.180349	1.383144E-1
4/7/2025  13:11:17.180849	1.422065E-1
4/7/2025  13:11:17.181349	1.432990E-1
4/7/2025  13:11:17.181849	1.480105E-1
4/7/2025  13:11:17.182349	1.437087E-1
4/7/2025  13:11:17.182849	1.523805E-1
4/7/2025  13:11:17.183349	1.458254E-1
4/7/2025  13:11:17.183849	1.456889E-1
4/7/2025  13:11:17.184349	1.557946E-1
4/7/2025  13:11:17.184849	1.525854E-1
4/7/2025  13:11:17.185349	1.665150E-1
4/7/2025  13:11:17.185849	1.702022E-1
4/7/2025  13:11:17.186349	1.624863E-1
4/7/2025  13:11:17.186849	1.704753E-1
4/7/2025  13:11:17.187349	1.649445E-1
4/7/2025  13:11:17.187849	1.631008E-1
4/7/2025  13:11:17.188349	1.617352E-1
4/7/2025  13:11:17.188849	1.611207E-1
4/7/2025  13:11:17.189349	1.632374E-1
4/7/2025  13:11:17.189849	1.577748E-1
4/7/2025  13:11:17.190349	1.564092E-1
4/7/2025  13:11:17.190849	1.564092E-1
4/7/2025  13:11:17.191349	1.537462E-1
4/7/2025  13:11:17.191849	1.532682E-1
4/7/2025  13:11:17.192349	1.499907E-1
4/7/2025  13:11:17.192849	1.463034E-1
4/7/2025  13:11:17.193349	1.459620E-1
4/7/2025  13:11:17.193849	1.374950E-1
4/7/2025  13:11:17.194349	1.405677E-1
4/7/2025  13:11:17.194849	1.341492E-1
4/7/2025  13:11:17.195349	1.318959E-1
4/7/2025  13:11:17.195849	1.310082E-1
4/7/2025  13:11:17.196349	1.282086E-1
4/7/2025  13:11:17.196849	1.249994E-1
4/7/2025  13:11:17.197349	1.204245E-1
4/7/2025  13:11:17.197849	1.239069E-1
4/7/2025  13:11:17.198349	1.272527E-1
4/7/2025  13:11:17.198849	1.256822E-1
4/7/2025  13:11:17.199349	1.255456E-1
4/7/2025  13:11:17.199849	1.272527E-1
4/7/2025  13:11:17.200349	1.348320E-1
4/7/2025  13:11:17.200849	1.336712E-1
4/7/2025  13:11:17.201349	1.352417E-1
4/7/2025  13:11:17.201849	1.280038E-1
4/7/2025  13:11:17.202349	1.430259E-1
4/7/2025  13:11:17.202849	1.268430E-1
4/7/2025  13:11:17.203349	1.369488E-1
4/7/2025  13:11:17.203849	1.448695E-1
4/7/2025  13:11:17.204349	1.485567E-1
4/7/2025  13:11:17.204849	1.515611E-1
4/7/2025  13:11:17.205349	1.506052E-1
4/7/2025  13:11:17.205849	1.617352E-1
4/7/2025  13:11:17.206349	1.565458E-1
4/7/2025  13:11:17.206849	1.597550E-1
4/7/2025  13:11:17.207349	1.555898E-1
4/7/2025  13:11:17.207849	1.570920E-1
4/7/2025  13:11:17.208349	1.564775E-1
4/7/2025  13:11:17.208849	1.514246E-1
4/7/2025  13:11:17.209349	1.509466E-1
4/7/2025  13:11:17.209849	1.538827E-1
4/7/2025  13:11:17.210349	1.533365E-1
4/7/2025  13:11:17.210849	1.499224E-1
4/7/2025  13:11:17.211349	1.422748E-1
4/7/2025  13:11:17.211849	1.404994E-1
4/7/2025  13:11:17.212349	1.392704E-1
4/7/2025  13:11:17.212849	1.445964E-1
4/7/2025  13:11:17.213349	1.327835E-1
4/7/2025  13:11:17.213849	1.238386E-1
4/7/2025  13:11:17.214349	1.221315E-1
4/7/2025  13:11:17.214849	1.181712E-1
4/7/2025  13:11:17.215349	1.276624E-1
4/7/2025  13:11:17.215849	1.073143E-1
4/7/2025  13:11:17.216349	1.012372E-1
4/7/2025  13:11:17.216849	9.816446E-2
4/7/2025  13:11:17.217349	9.918870E-2
4/7/2025  13:11:17.217849	9.734508E-2
4/7/2025  13:11:17.218349	1.000764E-1
4/7/2025  13:11:17.218849	9.522833E-2
4/7/2025  13:11:17.219349	9.543318E-2
4/7/2025  13:11:17.219849	9.570630E-2
4/7/2025  13:11:17.220349	9.734508E-2
4/7/2025  13:11:17.220849	9.488692E-2
4/7/2025  13:11:17.221349	9.673054E-2
4/7/2025  13:11:17.221849	8.915121E-2
4/7/2025  13:11:17.222349	1.069729E-1
4/7/2025  13:11:17.222849	9.440894E-2
4/7/2025  13:11:17.223349	1.113429E-1
4/7/2025  13:11:17.223849	9.898385E-2
4/7/2025  13:11:17.224349	1.092945E-1
4/7/2025  13:11:17.224849	1.206293E-1
4/7/2025  13:11:17.225349	1.201513E-1
4/7/2025  13:11:17.225849	1.166007E-1
4/7/2025  13:11:17.226349	1.172152E-1
4/7/2025  13:11:17.226849	1.198782E-1
4/7/2025  13:11:17.227349	1.228143E-1
4/7/2025  13:11:17.227849	1.269796E-1
4/7/2025  13:11:17.228349	1.245214E-1
4/7/2025  13:11:17.228849	1.242483E-1
4/7/2025  13:11:17.229349	1.224729E-1
4/7/2025  13:11:17.229849	1.232923E-1
4/7/2025  13:11:17.230349	1.242483E-1
4/7/2025  13:11:17.230849	1.176932E-1
4/7/2025  13:11:17.231349	1.183760E-1
4/7/2025  13:11:17.231849	1.157130E-1
4/7/2025  13:11:17.232349	1.152350E-1
4/7/2025  13:11:17.232849	1.089531E-1
4/7/2025  13:11:17.233349	1.110015E-1
4/7/2025  13:11:17.233849	1.045830E-1
4/7/2025  13:11:17.234349	1.045830E-1
4/7/2025  13:11:17.234849	1.062900E-1
4/7/2025  13:11:17.235349	1.069046E-1
4/7/2025  13:11:17.235849	9.427238E-2
4/7/2025  13:11:17.236349	9.611600E-2
4/7/2025  13:11:17.236849	1.036270E-1
4/7/2025  13:11:17.237349	1.020565E-1
4/7/2025  13:11:17.237849	9.809618E-2
4/7/2025  13:11:17.238349	1.009640E-1
4/7/2025  13:11:17.238849	1.067680E-1
4/7/2025  13:11:17.239349	1.101138E-1
4/7/2025  13:11:17.239849	1.189223E-1
4/7/2025  13:11:17.240349	1.194002E-1
4/7/2025  13:11:17.240849	1.206976E-1
4/7/2025  13:11:17.241349	1.254773E-1
4/7/2025  13:11:17.241849	1.294377E-1
4/7/2025  13:11:17.242349	1.352417E-1
4/7/2025  13:11:17.242849	1.420699E-1
4/7/2025  13:11:17.243349	1.441184E-1
4/7/2025  13:11:17.243849	1.456206E-1
4/7/2025  13:11:17.244349	1.556581E-1
4/7/2025  13:11:17.244849	1.615986E-1
4/7/2025  13:11:17.245349	1.536779E-1
4/7/2025  13:11:17.245849	1.668564E-1
4/7/2025  13:11:17.246349	1.664467E-1
4/7/2025  13:11:17.246849	1.699291E-1
4/7/2025  13:11:17.247349	1.768938E-1
4/7/2025  13:11:17.247849	1.767573E-1
4/7/2025  13:11:17.248349	1.831075E-1
4/7/2025  13:11:17.248849	1.837904E-1
4/7/2025  13:11:17.249349	1.844049E-1
4/7/2025  13:11:17.249849	1.844732E-1
4/7/2025  13:11:17.250349	1.820150E-1
4/7/2025  13:11:17.250849	1.784643E-1
4/7/2025  13:11:17.251349	1.790106E-1
4/7/2025  13:11:17.251849	1.790789E-1
4/7/2025  13:11:17.252349	1.787375E-1
4/7/2025  13:11:17.252849	1.773035E-1
4/7/2025  13:11:17.253349	1.741626E-1
4/7/2025  13:11:17.253849	1.907551E-1
4/7/2025  13:11:17.254349	1.640568E-1
4/7/2025  13:11:17.254849	1.701339E-1
4/7/2025  13:11:17.255349	1.603696E-1
4/7/2025  13:11:17.255849	1.510832E-1
4/7/2025  13:11:17.256349	1.623497E-1
4/7/2025  13:11:17.256849	1.561361E-1
4/7/2025  13:11:17.257349	1.592088E-1
4/7/2025  13:11:17.257849	1.592088E-1
4/7/2025  13:11:17.258349	1.655590E-1
4/7/2025  13:11:17.258849	1.653542E-1
4/7/2025  13:11:17.259349	1.653542E-1
4/7/2025  13:11:17.259849	1.680854E-1
4/7/2025  13:11:17.260349	1.684269E-1
4/7/2025  13:11:17.260849	1.745040E-1
4/7/2025  13:11:17.261349	1.781229E-1
4/7/2025  13:11:17.261849	1.734115E-1
4/7/2025  13:11:17.262349	1.770304E-1
4/7/2025  13:11:17.262849	1.909600E-1
4/7/2025  13:11:17.263349	1.895943E-1
4/7/2025  13:11:17.263849	1.845415E-1
4/7/2025  13:11:17.264349	1.917111E-1
4/7/2025  13:11:17.264849	1.938961E-1
4/7/2025  13:11:17.265349	1.994953E-1
4/7/2025  13:11:17.265849	2.010657E-1
4/7/2025  13:11:17.266349	2.074160E-1
4/7/2025  13:11:17.266849	2.163610E-1
4/7/2025  13:11:17.267349	2.108301E-1
4/7/2025  13:11:17.267849	2.140394E-1
4/7/2025  13:11:17.268349	2.134931E-1
4/7/2025  13:11:17.268849	2.134931E-1
4/7/2025  13:11:17.269349	2.105570E-1
4/7/2025  13:11:17.269849	2.090548E-1
4/7/2025  13:11:17.270349	2.076891E-1
4/7/2025  13:11:17.270849	2.055724E-1
4/7/2025  13:11:17.271349	2.039336E-1
4/7/2025  13:11:17.271849	2.021583E-1
4/7/2025  13:11:17.272349	2.046847E-1
4/7/2025  13:11:17.272849	2.034556E-1
4/7/2025  13:11:17.273349	2.015437E-1
4/7/2025  13:11:17.273849	1.912331E-1
4/7/2025  13:11:17.274349	1.875459E-1
4/7/2025  13:11:17.274849	1.839269E-1
4/7/2025  13:11:17.275349	1.835172E-1
4/7/2025  13:11:17.275849	1.862485E-1
4/7/2025  13:11:17.276349	1.690414E-1
4/7/2025  13:11:17.276849	1.711581E-1
4/7/2025  13:11:17.277349	1.797617E-1
4/7/2025  13:11:17.277849	1.799665E-1
4/7/2025  13:11:17.278349	1.792837E-1
4/7/2025  13:11:17.278849	1.811956E-1
4/7/2025  13:11:17.279349	1.800348E-1
4/7/2025  13:11:17.279849	1.811956E-1
4/7/2025  13:11:17.280349	1.803080E-1
4/7/2025  13:11:17.280849	1.832441E-1
4/7/2025  13:11:17.281349	1.849511E-1
4/7/2025  13:11:17.281849	1.792837E-1
4/7/2025  13:11:17.282349	1.817419E-1
4/7/2025  13:11:17.282849	1.913697E-1
4/7/2025  13:11:17.283349	1.969688E-1
4/7/2025  13:11:17.283849	2.058455E-1
4/7/2025  13:11:17.284349	1.964226E-1
4/7/2025  13:11:17.284849	2.079623E-1
4/7/2025  13:11:17.285349	2.018169E-1
4/7/2025  13:11:17.285849	2.102156E-1
4/7/2025  13:11:17.286349	2.091230E-1
4/7/2025  13:11:17.286849	2.053675E-1
4/7/2025  13:11:17.287349	2.167024E-1
4/7/2025  13:11:17.287849	2.188874E-1
4/7/2025  13:11:17.288349	2.156099E-1
4/7/2025  13:11:17.288849	2.219601E-1
4/7/2025  13:11:17.289349	2.082354E-1
4/7/2025  13:11:17.289849	2.117861E-1
4/7/2025  13:11:17.290349	2.109667E-1
4/7/2025  13:11:17.290849	2.106253E-1
4/7/2025  13:11:17.291349	2.069380E-1
4/7/2025  13:11:17.291849	2.054358E-1
4/7/2025  13:11:17.292349	2.055041E-1
4/7/2025  13:11:17.292849	2.022948E-1
4/7/2025  13:11:17.293349	2.034556E-1
4/7/2025  13:11:17.293849	1.960811E-1
4/7/2025  13:11:17.294349	1.904820E-1
4/7/2025  13:11:17.294849	1.828344E-1
4/7/2025  13:11:17.295349	1.824247E-1
4/7/2025  13:11:17.295849	1.862485E-1
4/7/2025  13:11:17.296349	1.816736E-1
4/7/2025  13:11:17.296849	1.837904E-1
4/7/2025  13:11:17.297349	1.958080E-1
4/7/2025  13:11:17.297849	1.945789E-1
4/7/2025  13:11:17.298349	1.941692E-1
4/7/2025  13:11:17.298849	1.977882E-1
4/7/2025  13:11:17.299349	2.038653E-1
4/7/2025  13:11:17.299849	2.096010E-1
4/7/2025  13:11:17.300349	2.199116E-1
4/7/2025  13:11:17.300849	2.259888E-1
4/7/2025  13:11:17.301349	2.347289E-1
4/7/2025  13:11:17.301849	2.406694E-1
4/7/2025  13:11:17.302349	2.429227E-1
4/7/2025  13:11:17.302849	2.552135E-1
4/7/2025  13:11:17.303349	2.510483E-1
4/7/2025  13:11:17.303849	2.681872E-1
4/7/2025  13:11:17.304349	2.755616E-1
4/7/2025  13:11:17.304849	2.826630E-1
4/7/2025  13:11:17.305349	2.967291E-1
4/7/2025  13:11:17.305849	3.049230E-1
4/7/2025  13:11:17.306349	3.066300E-1
4/7/2025  13:11:17.306849	3.151653E-1
4/7/2025  13:11:17.307349	3.174869E-1
4/7/2025  13:11:17.307849	3.226764E-1
4/7/2025  13:11:17.308349	3.251345E-1
4/7/2025  13:11:17.308849	3.296411E-1
4/7/2025  13:11:17.309349	3.299143E-1
4/7/2025  13:11:17.309849	3.299143E-1
4/7/2025  13:11:17.310349	3.279341E-1
4/7/2025  13:11:17.310849	3.389275E-1
4/7/2025  13:11:17.311349	3.329187E-1
4/7/2025  13:11:17.311849	3.308702E-1
4/7/2025  13:11:17.312349	3.318945E-1
4/7/2025  13:11:17.312849	3.300508E-1
4/7/2025  13:11:17.313349	3.236323E-1
4/7/2025  13:11:17.313849	3.093613E-1
4/7/2025  13:11:17.314349	3.008261E-1
4/7/2025  13:11:17.314849	3.008261E-1
4/7/2025  13:11:17.315349	2.920176E-1
4/7/2025  13:11:17.315849	2.802731E-1
4/7/2025  13:11:17.316349	2.638854E-1
4/7/2025  13:11:17.316849	2.543942E-1
4/7/2025  13:11:17.317349	2.385527E-1
4/7/2025  13:11:17.317849	2.261253E-1
4/7/2025  13:11:17.318349	2.108301E-1
4/7/2025  13:11:17.318849	1.923256E-1
4/7/2025  13:11:17.319349	1.728652E-1
4/7/2025  13:11:17.319849	1.535413E-1
4/7/2025  13:11:17.320349	1.307351E-1
4/7/2025  13:11:17.320849	1.043099E-1
4/7/2025  13:11:17.321349	7.044189E-2
4/7/2025  13:11:17.321849	3.684704E-2
4/7/2025  13:11:17.322349	1.001214E-2
4/7/2025  13:11:17.322849	-2.863559E-2
4/7/2025  13:11:17.323349	-7.711596E-2
4/7/2025  13:11:17.323849	-1.217042E-1
4/7/2025  13:11:17.324349	-1.499731E-1
4/7/2025  13:11:17.324849	-1.941517E-1
4/7/2025  13:11:17.325349	-2.299315E-1
4/7/2025  13:11:17.325849	-2.769097E-1
4/7/2025  13:11:17.326349	-3.203372E-1
4/7/2025  13:11:17.326849	-3.636964E-1
4/7/2025  13:11:17.327349	-4.043243E-1
4/7/2025  13:11:17.327849	-4.126547E-1
4/7/2025  13:11:17.328349	-4.123133E-1
4/7/2025  13:11:17.328849	-4.106745E-1
4/7/2025  13:11:17.329349	-4.110159E-1
4/7/2025  13:11:17.329849	-4.127913E-1
4/7/2025  13:11:17.330349	-4.140204E-1
4/7/2025  13:11:17.330849	-4.129961E-1
4/7/2025  13:11:17.331349	-4.136107E-1
4/7/2025  13:11:17.331849	-4.140204E-1
4/7/2025  13:11:17.332349	-4.112208E-1
4/7/2025  13:11:17.332849	-4.111525E-1
4/7/2025  13:11:17.333349	-4.123816E-1
4/7/2025  13:11:17.333849	-4.158640E-1
4/7/2025  13:11:17.334349	-4.136790E-1
4/7/2025  13:11:17.334849	-4.146349E-1
4/7/2025  13:11:17.335349	-4.147032E-1
4/7/2025  13:11:17.335849	-4.131327E-1
4/7/2025  13:11:17.336349	-4.106745E-1
4/7/2025  13:11:17.336849	-4.116988E-1
4/7/2025  13:11:17.337349	-4.155909E-1
4/7/2025  13:11:17.337849	-4.146349E-1
4/7/2025  13:11:17.338349	-4.139521E-1
4/7/2025  13:11:17.338849	-4.147032E-1
4/7/2025  13:11:17.339349	-4.129279E-1
4/7/2025  13:11:17.339849	-4.106745E-1
4/7/2025  13:11:17.340349	-4.112891E-1
4/7/2025  13:11:17.340849	-4.126547E-1
4/7/2025  13:11:17.341349	-4.139521E-1
4/7/2025  13:11:17.341849	-4.136790E-1
4/7/2025  13:11:17.342349	-4.139521E-1
4/7/2025  13:11:17.342849	-4.132693E-1
4/7/2025  13:11:17.343349	-4.103331E-1
4/7/2025  13:11:17.343849	-4.076018E-1
4/7/2025  13:11:17.344349	-4.110842E-1
4/7/2025  13:11:17.344849	-4.126547E-1
4/7/2025  13:11:17.345349	-4.116305E-1
4/7/2025  13:11:17.345849	-4.129961E-1
4/7/2025  13:11:17.346349	-4.126547E-1
4/7/2025  13:11:17.346849	-4.095820E-1
4/7/2025  13:11:17.347349	-4.083529E-1
4/7/2025  13:11:17.347849	-4.085578E-1
4/7/2025  13:11:17.348349	-4.104697E-1
4/7/2025  13:11:17.348849	-4.113574E-1
4/7/2025  13:11:17.349349	-4.108794E-1
4/7/2025  13:11:17.349849	-4.107428E-1
4/7/2025  13:11:17.350349	-4.106745E-1
4/7/2025  13:11:17.350849	-4.088309E-1
4/7/2025  13:11:17.351349	-4.086944E-1
4/7/2025  13:11:17.351849	-4.085578E-1
4/7/2025  13:11:17.352349	-4.100600E-1
4/7/2025  13:11:17.352849	-4.093089E-1
4/7/2025  13:11:17.353349	-4.054851E-1
4/7/2025  13:11:17.353849	-4.021393E-1
4/7/2025  13:11:17.354349	-3.940820E-1
4/7/2025  13:11:17.354849	-3.830885E-1
4/7/2025  13:11:17.355349	-3.677250E-1
4/7/2025  13:11:17.355849	-3.619893E-1
4/7/2025  13:11:17.356349	-3.480598E-1
4/7/2025  13:11:17.356849	-3.408901E-1
4/7/2025  13:11:17.357349	-3.232733E-1
4/7/2025  13:11:17.357849	-3.119385E-1
4/7/2025  13:11:17.358349	-2.935706E-1
4/7/2025  13:11:17.358849	-2.813480E-1
4/7/2025  13:11:17.359349	-2.628436E-1
4/7/2025  13:11:17.359849	-2.516453E-1
4/7/2025  13:11:17.360349	-2.399007E-1
4/7/2025  13:11:17.360849	-2.263809E-1
4/7/2025  13:11:17.361349	-2.132024E-1
4/7/2025  13:11:17.361849	-1.854798E-1
4/7/2025  13:11:17.362349	-1.881428E-1
4/7/2025  13:11:17.362849	-1.781736E-1
4/7/2025  13:11:17.363349	-1.636295E-1
4/7/2025  13:11:17.363849	-1.422572E-1
4/7/2025  13:11:17.364349	-1.304444E-1
4/7/2025  13:11:17.364849	-1.133738E-1
4/7/2025  13:11:17.365349	-1.028584E-1
4/7/2025  13:11:17.365849	-8.271510E-2
4/7/2025  13:11:17.366349	-7.547719E-2
4/7/2025  13:11:17.366849	-6.666878E-2
4/7/2025  13:11:17.367349	-5.089559E-2
4/7/2025  13:11:17.367849	-4.188234E-2
4/7/2025  13:11:17.368349	-3.512240E-2
4/7/2025  13:11:17.368849	-2.310473E-2
4/7/2025  13:11:17.369349	-2.214878E-2
4/7/2025  13:11:17.369849	-1.525228E-2
4/7/2025  13:11:17.370349	-1.238443E-2
4/7/2025  13:11:17.370849	-9.038600E-3
4/7/2025  13:11:17.371349	-9.311729E-3
4/7/2025  13:11:17.371849	-1.937251E-3
4/7/2025  13:11:17.372349	-8.447356E-4
4/7/2025  13:11:17.372849	4.139865E-3
4/7/2025  13:11:17.373349	4.754405E-3
4/7/2025  13:11:17.373849	1.028526E-2
4/7/2025  13:11:17.374349	-3.166331E-3
4/7/2025  13:11:17.374849	5.027534E-3
4/7/2025  13:11:17.375349	-2.620073E-3
4/7/2025  13:11:17.375849	9.329313E-3
4/7/2025  13:11:17.376349	-6.717005E-3
4/7/2025  13:11:17.376849	-6.580441E-3
4/7/2025  13:11:17.377349	1.749988E-3
4/7/2025  13:11:17.377849	7.827105E-3
4/7/2025  13:11:17.378349	1.103637E-2
4/7/2025  13:11:17.378849	1.595269E-2
4/7/2025  13:11:17.379349	1.936680E-2
4/7/2025  13:11:17.379849	2.469281E-2
4/7/2025  13:11:17.380349	2.462453E-2
4/7/2025  13:11:17.380849	3.063336E-2
4/7/2025  13:11:17.381349	3.384263E-2
4/7/2025  13:11:17.381849	3.425232E-2
4/7/2025  13:11:17.382349	5.289336E-2
4/7/2025  13:11:17.382849	5.378103E-2
4/7/2025  13:11:17.383349	4.777220E-2
4/7/2025  13:11:17.383849	6.013127E-2
4/7/2025  13:11:17.384349	6.955422E-2
4/7/2025  13:11:17.384849	6.866655E-2
4/7/2025  13:11:17.385349	6.088238E-2
4/7/2025  13:11:17.385849	8.164017E-2
4/7/2025  13:11:17.386349	8.170845E-2
4/7/2025  13:11:17.386849	8.252784E-2
4/7/2025  13:11:17.387349	1.015786E-1
4/7/2025  13:11:17.387849	9.727680E-2
4/7/2025  13:11:17.388349	1.033539E-1
4/7/2025  13:11:17.388849	1.008958E-1
4/7/2025  13:11:17.389349	1.024662E-1
4/7/2025  13:11:17.389849	9.877900E-2
4/7/2025  13:11:17.390349	9.905213E-2
4/7/2025  13:11:17.390849	9.714023E-2
4/7/2025  13:11:17.391349	1.002129E-1
4/7/2025  13:11:17.391849	1.027394E-1
4/7/2025  13:11:17.392349	1.032173E-1
4/7/2025  13:11:17.392849	1.026711E-1
4/7/2025  13:11:17.393349	9.761821E-2
4/7/2025  13:11:17.393849	9.475035E-2
4/7/2025  13:11:17.394349	8.997060E-2
4/7/2025  13:11:17.394849	8.382520E-2
4/7/2025  13:11:17.395349	8.505428E-2
4/7/2025  13:11:17.395849	8.334722E-2
4/7/2025  13:11:17.396349	8.225471E-2
4/7/2025  13:11:17.396849	8.484943E-2
4/7/2025  13:11:17.397349	8.990232E-2
4/7/2025  13:11:17.397849	9.345299E-2
4/7/2025  13:11:17.398349	9.611600E-2
4/7/2025  13:11:17.398849	9.550146E-2
4/7/2025  13:11:17.399349	9.925698E-2
4/7/2025  13:11:17.399849	9.953011E-2
4/7/2025  13:11:17.400349	9.993980E-2
4/7/2025  13:11:17.400849	1.022614E-1
4/7/2025  13:11:17.401349	1.062218E-1
4/7/2025  13:11:17.401849	1.051292E-1
4/7/2025  13:11:17.402349	1.262967E-1
4/7/2025  13:11:17.402849	1.151667E-1
4/7/2025  13:11:17.403349	1.288232E-1
4/7/2025  13:11:17.403849	1.164641E-1
4/7/2025  13:11:17.404349	1.263650E-1
4/7/2025  13:11:17.404849	1.280721E-1
4/7/2025  13:11:17.405349	1.321007E-1
4/7/2025  13:11:17.405849	1.407726E-1
4/7/2025  13:11:17.406349	1.494444E-1
4/7/2025  13:11:17.406849	1.590039E-1
4/7/2025  13:11:17.407349	1.521757E-1
4/7/2025  13:11:17.407849	1.517660E-1
4/7/2025  13:11:17.408349	1.518343E-1
4/7/2025  13:11:17.408849	1.498541E-1
4/7/2025  13:11:17.409349	1.623497E-1
4/7/2025  13:11:17.409849	1.497858E-1
4/7/2025  13:11:17.410349	1.476008E-1
4/7/2025  13:11:17.410849	1.478739E-1
4/7/2025  13:11:17.411349	1.492396E-1
4/7/2025  13:11:17.411849	1.481470E-1
4/7/2025  13:11:17.412349	1.516977E-1
4/7/2025  13:11:17.412849	1.458937E-1
4/7/2025  13:11:17.413349	1.353100E-1
4/7/2025  13:11:17.413849	1.382461E-1
4/7/2025  13:11:17.414349	1.263650E-1
4/7/2025  13:11:17.414849	1.265699E-1
4/7/2025  13:11:17.415349	1.379047E-1
4/7/2025  13:11:17.415849	1.214487E-1
4/7/2025  13:11:17.416349	1.258870E-1
4/7/2025  13:11:17.416849	1.232923E-1
4/7/2025  13:11:17.417349	1.249994E-1
4/7/2025  13:11:17.417849	1.212438E-1
4/7/2025  13:11:17.418349	1.203562E-1
4/7/2025  13:11:17.418849	1.199465E-1
4/7/2025  13:11:17.419349	1.224729E-1
4/7/2025  13:11:17.419849	1.232240E-1
4/7/2025  13:11:17.420349	1.215853E-1
4/7/2025  13:11:17.420849	1.254091E-1
4/7/2025  13:11:17.421349	1.327153E-1
4/7/2025  13:11:17.421849	1.316227E-1
4/7/2025  13:11:17.422349	1.301205E-1
4/7/2025  13:11:17.422849	1.456206E-1
4/7/2025  13:11:17.423349	1.326470E-1
4/7/2025  13:11:17.423849	1.334664E-1
4/7/2025  13:11:17.424349	1.432990E-1
4/7/2025  13:11:17.424849	1.425479E-1
4/7/2025  13:11:17.425349	1.396118E-1
4/7/2025  13:11:17.425849	1.454840E-1
4/7/2025  13:11:17.426349	1.437770E-1
4/7/2025  13:11:17.426849	1.500589E-1
4/7/2025  13:11:17.427349	1.531316E-1
4/7/2025  13:11:17.427849	1.512880E-1
4/7/2025  13:11:17.428349	1.498541E-1
4/7/2025  13:11:17.428849	1.514246E-1
4/7/2025  13:11:17.429349	1.456206E-1
4/7/2025  13:11:17.429849	1.447329E-1
4/7/2025  13:11:17.430349	1.435038E-1
4/7/2025  13:11:17.430849	1.435038E-1
4/7/2025  13:11:17.431349	1.441184E-1
4/7/2025  13:11:17.431849	1.420016E-1
4/7/2025  13:11:17.432349	1.383827E-1
4/7/2025  13:11:17.432849	1.325787E-1
4/7/2025  13:11:17.433349	1.388607E-1
4/7/2025  13:11:17.433849	1.252725E-1
4/7/2025  13:11:17.434349	1.301205E-1
4/7/2025  13:11:17.434849	1.179663E-1
4/7/2025  13:11:17.435349	1.138694E-1
4/7/2025  13:11:17.435849	1.064266E-1
4/7/2025  13:11:17.436349	1.109332E-1
4/7/2025  13:11:17.436849	1.122306E-1
4/7/2025  13:11:17.437349	1.095676E-1
4/7/2025  13:11:17.437849	1.114795E-1
4/7/2025  13:11:17.438349	1.099090E-1
4/7/2025  13:11:17.438849	1.123672E-1
4/7/2025  13:11:17.439349	1.114795E-1
4/7/2025  13:11:17.439849	1.135280E-1
4/7/2025  13:11:17.440349	1.178297E-1
4/7/2025  13:11:17.440849	1.207659E-1
4/7/2025  13:11:17.441349	1.230192E-1
4/7/2025  13:11:17.441849	1.143473E-1
4/7/2025  13:11:17.442349	1.172835E-1
4/7/2025  13:11:17.442849	1.206976E-1
4/7/2025  13:11:17.443349	1.232923E-1
4/7/2025  13:11:17.443849	1.276624E-1
4/7/2025  13:11:17.444349	1.370170E-1
4/7/2025  13:11:17.444849	1.292329E-1
4/7/2025  13:11:17.445349	1.547704E-1
4/7/2025  13:11:17.445849	1.505369E-1
4/7/2025  13:11:17.446349	1.427527E-1
4/7/2025  13:11:17.446849	1.535413E-1
4/7/2025  13:11:17.447349	1.598233E-1
4/7/2025  13:11:17.447849	1.495810E-1
4/7/2025  13:11:17.448349	1.512197E-1
4/7/2025  13:11:17.448849	1.501272E-1
4/7/2025  13:11:17.449349	1.485567E-1
4/7/2025  13:11:17.449849	1.495810E-1
4/7/2025  13:11:17.450349	1.484202E-1
4/7/2025  13:11:17.450849	1.441184E-1
4/7/2025  13:11:17.451349	1.463717E-1
4/7/2025  13:11:17.451849	1.444598E-1
4/7/2025  13:11:17.452349	1.393386E-1
4/7/2025  13:11:17.452849	1.349686E-1
4/7/2025  13:11:17.453349	1.310765E-1
4/7/2025  13:11:17.453849	1.318959E-1
4/7/2025  13:11:17.454349	1.201513E-1
4/7/2025  13:11:17.454849	1.157130E-1
4/7/2025  13:11:17.455349	1.213121E-1
4/7/2025  13:11:17.455849	1.202879E-1
4/7/2025  13:11:17.456349	1.158496E-1
4/7/2025  13:11:17.456849	9.871072E-2
4/7/2025  13:11:17.457349	9.795962E-2
4/7/2025  13:11:17.457849	9.618428E-2
4/7/2025  13:11:17.458349	9.693538E-2
4/7/2025  13:11:17.458849	1.011689E-1
4/7/2025  13:11:17.459349	9.338471E-2
4/7/2025  13:11:17.459849	9.304330E-2
4/7/2025  13:11:17.460349	1.000764E-1
4/7/2025  13:11:17.460849	1.016469E-1
4/7/2025  13:11:17.461349	9.946183E-2
4/7/2025  13:11:17.461849	1.142791E-1
4/7/2025  13:11:17.462349	9.830103E-2
4/7/2025  13:11:17.462849	1.004178E-1
4/7/2025  13:11:17.463349	1.031491E-1
4/7/2025  13:11:17.463849	1.061535E-1
4/7/2025  13:11:17.464349	1.102504E-1
4/7/2025  13:11:17.464849	1.213121E-1
4/7/2025  13:11:17.465349	1.295060E-1
4/7/2025  13:11:17.465849	1.118209E-1
4/7/2025  13:11:17.466349	1.203562E-1
4/7/2025  13:11:17.466849	1.195368E-1
4/7/2025  13:11:17.467349	1.271844E-1
4/7/2025  13:11:17.467849	1.234289E-1
4/7/2025  13:11:17.468349	1.219950E-1
4/7/2025  13:11:17.468849	1.196051E-1
4/7/2025  13:11:17.469349	1.215853E-1
4/7/2025  13:11:17.469849	1.188540E-1
4/7/2025  13:11:17.470349	1.206293E-1
4/7/2025  13:11:17.470849	1.171469E-1
4/7/2025  13:11:17.471349	1.107967E-1
4/7/2025  13:11:17.471849	1.046513E-1
4/7/2025  13:11:17.472349	1.041050E-1
4/7/2025  13:11:17.472849	9.816446E-2
4/7/2025  13:11:17.473349	9.591115E-2
4/7/2025  13:11:17.473849	9.072170E-2
4/7/2025  13:11:17.474349	9.113140E-2
4/7/2025  13:11:17.474849	8.942434E-2
4/7/2025  13:11:17.475349	6.934937E-2
4/7/2025  13:11:17.475849	7.624588E-2
4/7/2025  13:11:17.476349	6.791545E-2
4/7/2025  13:11:17.476849	6.504759E-2
4/7/2025  13:11:17.477349	7.406084E-2
4/7/2025  13:11:17.477849	6.538900E-2
4/7/2025  13:11:17.478349	6.593526E-2
4/7/2025  13:11:17.478849	6.784716E-2
4/7/2025  13:11:17.479349	6.928109E-2
4/7/2025  13:11:17.479849	7.167097E-2
4/7/2025  13:11:17.480349	7.085158E-2
4/7/2025  13:11:17.480849	6.852999E-2
4/7/2025  13:11:17.481349	6.641324E-2
4/7/2025  13:11:17.481849	7.078330E-2
4/7/2025  13:11:17.482349	7.330974E-2
4/7/2025  13:11:17.482849	7.474367E-2
4/7/2025  13:11:17.483349	8.382520E-2
4/7/2025  13:11:17.483849	7.406084E-2
4/7/2025  13:11:17.484349	9.358956E-2
4/7/2025  13:11:17.484849	8.594195E-2
4/7/2025  13:11:17.485349	8.450802E-2
4/7/2025  13:11:17.485849	8.744416E-2
4/7/2025  13:11:17.486349	8.655649E-2
4/7/2025  13:11:17.486849	8.751244E-2
4/7/2025  13:11:17.487349	9.277017E-2
4/7/2025  13:11:17.487849	9.113140E-2
4/7/2025  13:11:17.488349	9.140453E-2
4/7/2025  13:11:17.488849	9.352127E-2
4/7/2025  13:11:17.489349	8.730759E-2
4/7/2025  13:11:17.489849	8.512256E-2
4/7/2025  13:11:17.490349	8.027453E-2
4/7/2025  13:11:17.490849	7.952342E-2
4/7/2025  13:11:17.491349	7.351459E-2
4/7/2025  13:11:17.491849	7.624588E-2
4/7/2025  13:11:17.492349	7.494851E-2
4/7/2025  13:11:17.492849	6.586698E-2
4/7/2025  13:11:17.493349	6.504759E-2
4/7/2025  13:11:17.493849	6.245287E-2
4/7/2025  13:11:17.494349	6.334054E-2
4/7/2025  13:11:17.494849	5.227882E-2
4/7/2025  13:11:17.495349	5.023035E-2
4/7/2025  13:11:17.495849	4.265103E-2
4/7/2025  13:11:17.496349	3.479858E-2
4/7/2025  13:11:17.496849	3.179416E-2
4/7/2025  13:11:17.497349	3.124790E-2
4/7/2025  13:11:17.497849	2.865318E-2
4/7/2025  13:11:17.498349	2.872146E-2
4/7/2025  13:11:17.498849	3.070164E-2
4/7/2025  13:11:17.499349	3.452545E-2
4/7/2025  13:11:17.499849	3.193072E-2
4/7/2025  13:11:17.500349	3.138447E-2
4/7/2025  13:11:17.500849	3.111134E-2
4/7/2025  13:11:17.501349	3.438888E-2
4/7/2025  13:11:17.501849	3.090649E-2
4/7/2025  13:11:17.502349	3.691532E-2
4/7/2025  13:11:17.502849	4.128539E-2
4/7/2025  13:11:17.503349	2.913115E-2
4/7/2025  13:11:17.503849	3.657391E-2
4/7/2025  13:11:17.504349	3.882723E-2
4/7/2025  13:11:17.504849	4.456293E-2
4/7/2025  13:11:17.505349	4.954753E-2
4/7/2025  13:11:17.505849	4.988894E-2
4/7/2025  13:11:17.506349	4.142195E-2
4/7/2025  13:11:17.506849	5.364447E-2
4/7/2025  13:11:17.507349	4.572373E-2
4/7/2025  13:11:17.507849	4.483606E-2
4/7/2025  13:11:17.508349	4.367526E-2
4/7/2025  13:11:17.508849	4.442637E-2
4/7/2025  13:11:17.509349	3.930520E-2
4/7/2025  13:11:17.509849	3.589109E-2
4/7/2025  13:11:17.510349	3.350121E-2
4/7/2025  13:11:17.510849	2.933600E-2
4/7/2025  13:11:17.511349	2.407827E-2
4/7/2025  13:11:17.511849	2.510250E-2
4/7/2025  13:11:17.512349	2.360029E-2
4/7/2025  13:11:17.512849	1.636238E-2
4/7/2025  13:11:17.513349	1.526987E-2
4/7/2025  13:11:17.513849	8.373362E-3
4/7/2025  13:11:17.514349	6.393178E-3
4/7/2025  13:11:17.514849	-5.556208E-3
4/7/2025  13:11:17.515349	-1.805185E-2
4/7/2025  13:11:17.515849	-5.761054E-3
4/7/2025  13:11:17.516349	-2.433381E-2
4/7/2025  13:11:17.516849	-3.013780E-2
4/7/2025  13:11:17.517349	-3.082062E-2
4/7/2025  13:11:17.517849	-3.252768E-2
4/7/2025  13:11:17.518349	-3.621492E-2
4/7/2025  13:11:17.518849	-3.491756E-2
4/7/2025  13:11:17.519349	-4.338455E-2
4/7/2025  13:11:17.519849	-3.908277E-2
4/7/2025  13:11:17.520349	-4.481848E-2
4/7/2025  13:11:17.520849	-3.915105E-2
4/7/2025  13:11:17.521349	-4.167750E-2
4/7/2025  13:11:17.521849	-3.990216E-2
4/7/2025  13:11:17.522349	-4.980308E-2
4/7/2025  13:11:17.522849	-4.338455E-2
4/7/2025  13:11:17.523349	-3.997044E-2
4/7/2025  13:11:17.523849	-4.154093E-2
4/7/2025  13:11:17.524349	-4.092639E-2
4/7/2025  13:11:17.524849	-3.054750E-2
4/7/2025  13:11:17.525349	-4.734492E-2
4/7/2025  13:11:17.525849	-4.229203E-2
4/7/2025  13:11:17.526349	-4.249688E-2
4/7/2025  13:11:17.526849	-3.580523E-2
4/7/2025  13:11:17.527349	-4.140437E-2
4/7/2025  13:11:17.527849	-4.017529E-2
4/7/2025  13:11:17.528349	-4.229203E-2
4/7/2025  13:11:17.528849	-5.034934E-2
4/7/2025  13:11:17.529349	-5.062246E-2
4/7/2025  13:11:17.529849	-5.007621E-2
4/7/2025  13:11:17.530349	-5.485596E-2
4/7/2025  13:11:17.530849	-6.421062E-2
4/7/2025  13:11:17.531349	-6.127449E-2
4/7/2025  13:11:17.531849	-6.980976E-2
4/7/2025  13:11:17.532349	-6.837584E-2
4/7/2025  13:11:17.532849	-8.073492E-2
4/7/2025  13:11:17.533349	-8.025694E-2
4/7/2025  13:11:17.533849	-9.049927E-2
4/7/2025  13:11:17.534349	-9.377682E-2
4/7/2025  13:11:17.534849	-1.019024E-1
4/7/2025  13:11:17.535349	-1.068187E-1
4/7/2025  13:11:17.535849	-1.025852E-1
4/7/2025  13:11:17.536349	-1.094134E-1
4/7/2025  13:11:17.536849	-1.101645E-1
4/7/2025  13:11:17.537349	-1.221822E-1
4/7/2025  13:11:17.537849	-1.261426E-1
4/7/2025  13:11:17.538349	-1.274399E-1
4/7/2025  13:11:17.538849	-1.327660E-1
4/7/2025  13:11:17.539349	-1.344730E-1
4/7/2025  13:11:17.539849	-1.369995E-1
4/7/2025  13:11:17.540349	-1.372043E-1
4/7/2025  13:11:17.540849	-1.376140E-1
4/7/2025  13:11:17.541349	-1.345413E-1
4/7/2025  13:11:17.541849	-1.389114E-1
4/7/2025  13:11:17.542349	-1.368629E-1
4/7/2025  13:11:17.542849	-1.372726E-1
4/7/2025  13:11:17.543349	-1.396625E-1
4/7/2025  13:11:17.543849	-1.374091E-1
4/7/2025  13:11:17.544349	-1.395942E-1
4/7/2025  13:11:17.544849	-1.437594E-1
4/7/2025  13:11:17.545349	-1.277814E-1
4/7/2025  13:11:17.545849	-1.391845E-1
4/7/2025  13:11:17.546349	-1.416426E-1
4/7/2025  13:11:17.546849	-1.405501E-1
4/7/2025  13:11:17.547349	-1.436911E-1
4/7/2025  13:11:17.547849	-1.483343E-1
4/7/2025  13:11:17.548349	-1.542749E-1
4/7/2025  13:11:17.548849	-1.580304E-1
4/7/2025  13:11:17.549349	-1.659511E-1
4/7/2025  13:11:17.549849	-1.701163E-1
4/7/2025  13:11:17.550349	-1.725062E-1
4/7/2025  13:11:17.550849	-1.766714E-1
4/7/2025  13:11:17.551349	-1.834996E-1
4/7/2025  13:11:17.551849	-1.860261E-1
4/7/2025  13:11:17.552349	-1.923763E-1
4/7/2025  13:11:17.552849	-1.991363E-1
4/7/2025  13:11:17.553349	-2.081495E-1
4/7/2025  13:11:17.553849	-2.140901E-1
4/7/2025  13:11:17.554349	-2.232399E-1
4/7/2025  13:11:17.554849	-2.277465E-1
4/7/2025  13:11:17.555349	-2.287025E-1
4/7/2025  13:11:17.555849	-2.397642E-1
4/7/2025  13:11:17.556349	-2.484360E-1
4/7/2025  13:11:17.556849	-2.388765E-1
4/7/2025  13:11:17.557349	-2.545131E-1
4/7/2025  13:11:17.557849	-2.579272E-1
4/7/2025  13:11:17.558349	-2.612048E-1
4/7/2025  13:11:17.558849	-2.651652E-1
4/7/2025  13:11:17.559349	-2.682379E-1
4/7/2025  13:11:17.559849	-2.700815E-1
4/7/2025  13:11:17.560349	-2.693987E-1
4/7/2025  13:11:17.560849	-2.698766E-1
4/7/2025  13:11:17.561349	-2.700815E-1
4/7/2025  13:11:17.561849	-2.744515E-1
4/7/2025  13:11:17.562349	-2.789582E-1
4/7/2025  13:11:17.562849	-2.749978E-1
4/7/2025  13:11:17.563349	-2.784802E-1
4/7/2025  13:11:17.563849	-2.805969E-1
4/7/2025  13:11:17.564349	-2.789582E-1
4/7/2025  13:11:17.564849	-2.776608E-1
4/7/2025  13:11:17.565349	-2.767731E-1
4/7/2025  13:11:17.565849	-2.791630E-1
4/7/2025  13:11:17.566349	-2.754075E-1
4/7/2025  13:11:17.566849	-2.825771E-1
4/7/2025  13:11:17.567349	-2.870837E-1
4/7/2025  13:11:17.567849	-2.904296E-1
4/7/2025  13:11:17.568349	-2.941168E-1
4/7/2025  13:11:17.568849	-2.982820E-1
4/7/2025  13:11:17.569349	-3.009450E-1
4/7/2025  13:11:17.569849	-3.036080E-1
4/7/2025  13:11:17.570349	-3.073636E-1
4/7/2025  13:11:17.570849	-3.124847E-1
4/7/2025  13:11:17.571349	-3.201323E-1
4/7/2025  13:11:17.571849	-3.237513E-1
4/7/2025  13:11:17.572349	-3.300333E-1
4/7/2025  13:11:17.572849	-3.340619E-1
4/7/2025  13:11:17.573349	-3.368615E-1
4/7/2025  13:11:17.573849	-3.427337E-1
4/7/2025  13:11:17.574349	-3.488109E-1
4/7/2025  13:11:17.574849	-3.488109E-1
4/7/2025  13:11:17.575349	-3.534540E-1
4/7/2025  13:11:17.575849	-3.616479E-1
4/7/2025  13:11:17.576349	-3.658814E-1
4/7/2025  13:11:17.576849	-3.666325E-1
4/7/2025  13:11:17.577349	-3.677933E-1
4/7/2025  13:11:17.577849	-3.667691E-1
4/7/2025  13:11:17.578349	-3.668374E-1
4/7/2025  13:11:17.578849	-3.664960E-1
4/7/2025  13:11:17.579349	-3.686127E-1
4/7/2025  13:11:17.579849	-3.710709E-1
4/7/2025  13:11:17.580349	-3.707977E-1
4/7/2025  13:11:17.580849	-3.712074E-1
4/7/2025  13:11:17.581349	-3.709343E-1
4/7/2025  13:11:17.581849	-3.661545E-1
4/7/2025  13:11:17.582349	-3.666325E-1
4/7/2025  13:11:17.582849	-3.666325E-1
4/7/2025  13:11:17.583349	-3.731193E-1
4/7/2025  13:11:17.583849	-3.716854E-1
4/7/2025  13:11:17.584349	-3.657448E-1
4/7/2025  13:11:17.584849	-3.669056E-1
4/7/2025  13:11:17.585349	-3.691590E-1
4/7/2025  13:11:17.585849	-3.672471E-1
4/7/2025  13:11:17.586349	-3.662911E-1
4/7/2025  13:11:17.586849	-3.666325E-1
4/7/2025  13:11:17.587349	-3.697735E-1
4/7/2025  13:11:17.587849	-3.727779E-1
4/7/2025  13:11:17.588349	-3.742118E-1
4/7/2025  13:11:17.588849	-3.757823E-1
4/7/2025  13:11:17.589349	-3.774211E-1
4/7/2025  13:11:17.589849	-3.774894E-1
4/7/2025  13:11:17.590349	-3.789916E-1
4/7/2025  13:11:17.590849	-3.822009E-1
4/7/2025  13:11:17.591349	-3.863661E-1
4/7/2025  13:11:17.591849	-3.882097E-1
4/7/2025  13:11:17.592349	-3.900533E-1
4/7/2025  13:11:17.592849	-3.935357E-1
4/7/2025  13:11:17.593349	-3.925115E-1
4/7/2025  13:11:17.593849	-3.936723E-1
4/7/2025  13:11:17.594349	-3.977692E-1
4/7/2025  13:11:17.594849	-3.975644E-1
4/7/2025  13:11:17.595349	-4.007736E-1
4/7/2025  13:11:17.595849	-4.058265E-1
4/7/2025  13:11:17.596349	-4.044609E-1
4/7/2025  13:11:17.596849	-3.967450E-1
4/7/2025  13:11:17.597349	-3.978375E-1
4/7/2025  13:11:17.597849	-3.940137E-1
4/7/2025  13:11:17.598349	-3.960621E-1
4/7/2025  13:11:17.598849	-3.959256E-1
4/7/2025  13:11:17.599349	-3.928529E-1
4/7/2025  13:11:17.599849	-3.922383E-1
4/7/2025  13:11:17.600349	-3.888925E-1
4/7/2025  13:11:17.600849	-3.883463E-1
4/7/2025  13:11:17.601349	-3.852053E-1
4/7/2025  13:11:17.601849	-3.832934E-1
4/7/2025  13:11:17.602349	-3.826106E-1
4/7/2025  13:11:17.602849	-3.843859E-1
4/7/2025  13:11:17.603349	-3.841810E-1
4/7/2025  13:11:17.603849	-3.760555E-1
4/7/2025  13:11:17.604349	-3.809718E-1
4/7/2025  13:11:17.604849	-3.761920E-1
4/7/2025  13:11:17.605349	-3.707977E-1
4/7/2025  13:11:17.605849	-3.760555E-1
4/7/2025  13:11:17.606349	-3.697735E-1
4/7/2025  13:11:17.606849	-3.763969E-1
4/7/2025  13:11:17.607349	-3.750312E-1
4/7/2025  13:11:17.607849	-3.770797E-1
4/7/2025  13:11:17.608349	-3.780356E-1
4/7/2025  13:11:17.608849	-3.763286E-1
4/7/2025  13:11:17.609349	-3.791282E-1
4/7/2025  13:11:17.609849	-3.802890E-1
4/7/2025  13:11:17.610349	-3.830202E-1
4/7/2025  13:11:17.610849	-3.849321E-1
4/7/2025  13:11:17.611349	-3.847956E-1
4/7/2025  13:11:17.611849	-3.850004E-1
4/7/2025  13:11:17.612349	-3.836348E-1
4/7/2025  13:11:17.612849	-3.830885E-1
4/7/2025  13:11:17.613349	-3.843176E-1
4/7/2025  13:11:17.613849	-3.843176E-1
4/7/2025  13:11:17.614349	-3.884145E-1
4/7/2025  13:11:17.614849	-3.857515E-1
4/7/2025  13:11:17.615349	-3.884145E-1
4/7/2025  13:11:17.615849	-3.816546E-1
4/7/2025  13:11:17.616349	-3.884828E-1
4/7/2025  13:11:17.616849	-3.843176E-1
4/7/2025  13:11:17.617349	-3.809035E-1
4/7/2025  13:11:17.617849	-3.791282E-1
4/7/2025  13:11:17.618349	-3.767383E-1
4/7/2025  13:11:17.618849	-3.757823E-1
4/7/2025  13:11:17.619349	-3.713440E-1
4/7/2025  13:11:17.619849	-3.688858E-1
4/7/2025  13:11:17.620349	-3.630136E-1
4/7/2025  13:11:17.620849	-3.581655E-1
4/7/2025  13:11:17.621349	-3.501765E-1
4/7/2025  13:11:17.621849	-3.521567E-1
4/7/2025  13:11:17.622349	-3.518153E-1
4/7/2025  13:11:17.622849	-3.494937E-1
4/7/2025  13:11:17.623349	-3.387734E-1
4/7/2025  13:11:17.623849	-3.363835E-1
4/7/2025  13:11:17.624349	-3.310575E-1
4/7/2025  13:11:17.624849	-3.247755E-1
4/7/2025  13:11:17.625349	-3.209517E-1
4/7/2025  13:11:17.625849	-3.152160E-1
4/7/2025  13:11:17.626349	-3.144649E-1
4/7/2025  13:11:17.626849	-3.117336E-1
4/7/2025  13:11:17.627349	-3.068856E-1
4/7/2025  13:11:17.627849	-3.067490E-1
4/7/2025  13:11:17.628349	-3.042226E-1
4/7/2025  13:11:17.628849	-2.993745E-1
4/7/2025  13:11:17.629349	-2.960287E-1
4/7/2025  13:11:17.629849	-2.900882E-1
4/7/2025  13:11:17.630349	-2.893371E-1
4/7/2025  13:11:17.630849	-2.896785E-1
4/7/2025  13:11:17.631349	-2.854450E-1
4/7/2025  13:11:17.631849	-2.833282E-1
4/7/2025  13:11:17.632349	-2.810066E-1
4/7/2025  13:11:17.632849	-2.773877E-1
4/7/2025  13:11:17.633349	-2.788216E-1
4/7/2025  13:11:17.633849	-2.757489E-1
4/7/2025  13:11:17.634349	-2.698083E-1
4/7/2025  13:11:17.634849	-2.667356E-1
4/7/2025  13:11:17.635349	-2.695352E-1
4/7/2025  13:11:17.635849	-2.725396E-1
4/7/2025  13:11:17.636349	-2.711057E-1
4/7/2025  13:11:17.636849	-2.663942E-1
4/7/2025  13:11:17.637349	-2.605902E-1
4/7/2025  13:11:17.637849	-2.572444E-1
4/7/2025  13:11:17.638349	-2.485043E-1
4/7/2025  13:11:17.638849	-2.418126E-1
4/7/2025  13:11:17.639349	-2.346430E-1
4/7/2025  13:11:17.639849	-2.301364E-1
4/7/2025  13:11:17.640349	-2.235130E-1
4/7/2025  13:11:17.640849	-2.182553E-1
4/7/2025  13:11:17.641349	-2.102663E-1
4/7/2025  13:11:17.641849	-2.017993E-1
4/7/2025  13:11:17.642349	-1.971561E-1
4/7/2025  13:11:17.642849	-1.841825E-1
4/7/2025  13:11:17.643349	-1.598057E-1
4/7/2025  13:11:17.643849	-1.707309E-1
4/7/2025  13:11:17.644349	-1.625370E-1
4/7/2025  13:11:17.644849	-1.529092E-1
4/7/2025  13:11:17.645349	-1.476515E-1
