waveform	Ch0	
t0	4/7/2025  12:39:50.381432	
delta t	0.000500	

time[0]	Ch0
4/7/2025  12:39:50.381432	-3.185361E-1
4/7/2025  12:39:50.381932	-3.273237E-1
4/7/2025  12:39:50.382432	-3.348094E-1
4/7/2025  12:39:50.382932	-3.393660E-1
4/7/2025  12:39:50.383432	-3.569411E-1
4/7/2025  12:39:50.383932	-3.627995E-1
4/7/2025  12:39:50.384432	-3.686579E-1
4/7/2025  12:39:50.384932	-3.754927E-1
4/7/2025  12:39:50.385432	-3.846058E-1
4/7/2025  12:39:50.385932	-3.816766E-1
4/7/2025  12:39:50.386432	-3.849313E-1
4/7/2025  12:39:50.386932	-3.859076E-1
4/7/2025  12:39:50.387432	-3.875350E-1
4/7/2025  12:39:50.387932	-3.852567E-1
4/7/2025  12:39:50.388432	-3.875350E-1
4/7/2025  12:39:50.388932	-3.872095E-1
4/7/2025  12:39:50.389432	-3.878604E-1
4/7/2025  12:39:50.389932	-3.888368E-1
4/7/2025  12:39:50.390432	-3.872095E-1
4/7/2025  12:39:50.390932	-3.855822E-1
4/7/2025  12:39:50.391432	-3.875350E-1
4/7/2025  12:39:50.391932	-3.888368E-1
4/7/2025  12:39:50.392432	-3.891623E-1
4/7/2025  12:39:50.392932	-3.849313E-1
4/7/2025  12:39:50.393432	-3.820021E-1
4/7/2025  12:39:50.393932	-3.767946E-1
4/7/2025  12:39:50.394432	-3.696343E-1
4/7/2025  12:39:50.394932	-3.699598E-1
4/7/2025  12:39:50.395432	-3.680070E-1
4/7/2025  12:39:50.395932	-3.712617E-1
4/7/2025  12:39:50.396432	-3.654033E-1
4/7/2025  12:39:50.396932	-3.696343E-1
4/7/2025  12:39:50.397432	-3.654033E-1
4/7/2025  12:39:50.397932	-3.641014E-1
4/7/2025  12:39:50.398432	-3.553138E-1
4/7/2025  12:39:50.398932	-3.494554E-1
4/7/2025  12:39:50.399432	-3.396914E-1
4/7/2025  12:39:50.399932	-3.309038E-1
4/7/2025  12:39:50.400432	-3.136541E-1
4/7/2025  12:39:50.400932	-2.999845E-1
4/7/2025  12:39:50.401432	-2.811075E-1
4/7/2025  12:39:50.401932	-2.606031E-1
4/7/2025  12:39:50.402432	-2.287074E-1
4/7/2025  12:39:50.402932	-1.990900E-1
4/7/2025  12:39:50.403432	-1.733781E-1
4/7/2025  12:39:50.403932	-1.483172E-1
4/7/2025  12:39:50.404432	-1.134923E-1
4/7/2025  12:39:50.404932	-8.094570E-2
4/7/2025  12:39:50.405432	-3.049842E-2
4/7/2025  12:39:50.405932	2.157620E-2
4/7/2025  12:39:50.406432	7.527814E-2
4/7/2025  12:39:50.406932	1.107540E-1
4/7/2025  12:39:50.407432	1.745454E-1
4/7/2025  12:39:50.407932	2.386622E-1
4/7/2025  12:39:50.408432	2.946424E-1
4/7/2025  12:39:50.408932	3.509481E-1
4/7/2025  12:39:50.409432	4.092066E-1
4/7/2025  12:39:50.409932	4.609557E-1
4/7/2025  12:39:50.410432	5.231198E-1
4/7/2025  12:39:50.410932	5.781236E-1
4/7/2025  12:39:50.411432	6.376840E-1
4/7/2025  12:39:50.411932	7.008244E-1
4/7/2025  12:39:50.412432	7.581065E-1
4/7/2025  12:39:50.412932	8.293836E-1
4/7/2025  12:39:50.413432	9.013117E-1
4/7/2025  12:39:50.413932	9.641267E-1
4/7/2025  12:39:50.414432	1.037031E+0
4/7/2025  12:39:50.414932	1.089431E+0
4/7/2025  12:39:50.415432	1.153874E+0
4/7/2025  12:39:50.415932	1.193580E+0
4/7/2025  12:39:50.416432	1.254443E+0
4/7/2025  12:39:50.416932	1.312376E+0
4/7/2025  12:39:50.417432	1.349804E+0
4/7/2025  12:39:50.417932	1.390488E+0
4/7/2025  12:39:50.418432	1.426614E+0
4/7/2025  12:39:50.418932	1.455906E+0
4/7/2025  12:39:50.419432	1.472831E+0
4/7/2025  12:39:50.419932	1.502773E+0
4/7/2025  12:39:50.420432	1.518396E+0
4/7/2025  12:39:50.420932	1.532065E+0
4/7/2025  12:39:50.421432	1.536297E+0
4/7/2025  12:39:50.421932	1.552244E+0
4/7/2025  12:39:50.422432	1.553546E+0
4/7/2025  12:39:50.422932	1.554523E+0
4/7/2025  12:39:50.423432	1.550617E+0
4/7/2025  12:39:50.423932	1.550617E+0
4/7/2025  12:39:50.424432	1.543457E+0
4/7/2025  12:39:50.424932	1.532065E+0
4/7/2025  12:39:50.425432	1.511887E+0
4/7/2025  12:39:50.425932	1.506679E+0
4/7/2025  12:39:50.426432	1.502773E+0
4/7/2025  12:39:50.426932	1.487151E+0
4/7/2025  12:39:50.427432	1.456883E+0
4/7/2025  12:39:50.427932	1.453628E+0
4/7/2025  12:39:50.428432	1.440284E+0
4/7/2025  12:39:50.428932	1.421407E+0
4/7/2025  12:39:50.429432	1.397648E+0
4/7/2025  12:39:50.429932	1.378445E+0
4/7/2025  12:39:50.430432	1.350781E+0
4/7/2025  12:39:50.430932	1.320512E+0
4/7/2025  12:39:50.431432	1.292522E+0
4/7/2025  12:39:50.431932	1.258674E+0
4/7/2025  12:39:50.432432	1.218316E+0
4/7/2025  12:39:50.432932	1.192279E+0
4/7/2025  12:39:50.433432	1.154850E+0
4/7/2025  12:39:50.433932	1.117421E+0
4/7/2025  12:39:50.434432	1.082271E+0
4/7/2025  12:39:50.434932	1.035078E+0
4/7/2025  12:39:50.435432	1.021734E+0
4/7/2025  12:39:50.435932	9.823528E-1
4/7/2025  12:39:50.436432	9.439478E-1
4/7/2025  12:39:50.436932	9.019626E-1
4/7/2025  12:39:50.437432	8.651849E-1
4/7/2025  12:39:50.437932	8.303600E-1
4/7/2025  12:39:50.438432	7.922805E-1
4/7/2025  12:39:50.438932	7.542009E-1
4/7/2025  12:39:50.439432	7.105884E-1
4/7/2025  12:39:50.439932	6.803201E-1
4/7/2025  12:39:50.440432	6.516790E-1
4/7/2025  12:39:50.440932	6.080665E-1
4/7/2025  12:39:50.441432	5.725907E-1
4/7/2025  12:39:50.441932	5.380913E-1
4/7/2025  12:39:50.442432	5.065210E-1
4/7/2025  12:39:50.442932	4.726725E-1
4/7/2025  12:39:50.443432	4.407768E-1
4/7/2025  12:39:50.443932	4.039991E-1
4/7/2025  12:39:50.444432	3.701506E-1
4/7/2025  12:39:50.444932	3.437879E-1
4/7/2025  12:39:50.445432	3.151468E-1
4/7/2025  12:39:50.445932	2.910623E-1
4/7/2025  12:39:50.446432	2.588412E-1
4/7/2025  12:39:50.446932	2.415914E-1
4/7/2025  12:39:50.447432	2.243417E-1
4/7/2025  12:39:50.447932	2.018845E-1
4/7/2025  12:39:50.448432	1.833330E-1
4/7/2025  12:39:50.448932	1.634795E-1
4/7/2025  12:39:50.449432	1.488335E-1
4/7/2025  12:39:50.449932	1.348385E-1
4/7/2025  12:39:50.450432	1.188906E-1
4/7/2025  12:39:50.450932	1.032682E-1
4/7/2025  12:39:50.451432	9.545705E-2
4/7/2025  12:39:50.451932	7.885827E-2
4/7/2025  12:39:50.452432	6.160856E-2
4/7/2025  12:39:50.452932	5.705203E-2
4/7/2025  12:39:50.453432	4.077871E-2
4/7/2025  12:39:50.453932	3.947685E-2
4/7/2025  12:39:50.454432	2.125073E-2
4/7/2025  12:39:50.454932	2.092526E-2
4/7/2025  12:39:50.455432	1.343954E-2
4/7/2025  12:39:50.455932	-1.194683E-2
4/7/2025  12:39:50.456432	-1.227230E-2
4/7/2025  12:39:50.456932	-1.943256E-2
4/7/2025  12:39:50.457432	-3.212575E-2
4/7/2025  12:39:50.457932	-4.188974E-2
4/7/2025  12:39:50.458432	-5.848852E-2
4/7/2025  12:39:50.458932	-7.248357E-2
4/7/2025  12:39:50.459432	-8.159663E-2
4/7/2025  12:39:50.459932	-9.201155E-2
4/7/2025  12:39:50.460432	-1.050302E-1
4/7/2025  12:39:50.460932	-1.180489E-1
4/7/2025  12:39:50.461432	-1.349731E-1
4/7/2025  12:39:50.461932	-1.460390E-1
4/7/2025  12:39:50.462432	-1.492936E-1
4/7/2025  12:39:50.462932	-1.489682E-1
4/7/2025  12:39:50.463432	-1.697980E-1
4/7/2025  12:39:50.463932	-1.737036E-1
4/7/2025  12:39:50.464432	-1.789111E-1
4/7/2025  12:39:50.464932	-1.925806E-1
4/7/2025  12:39:50.465432	-1.961608E-1
4/7/2025  12:39:50.465932	-2.072266E-1
4/7/2025  12:39:50.466432	-2.241509E-1
4/7/2025  12:39:50.466932	-2.140614E-1
4/7/2025  12:39:50.467432	-2.179670E-1
4/7/2025  12:39:50.467932	-2.166652E-1
4/7/2025  12:39:50.468432	-2.283819E-1
4/7/2025  12:39:50.468932	-2.316366E-1
4/7/2025  12:39:50.469432	-2.300093E-1
4/7/2025  12:39:50.469932	-2.267546E-1
4/7/2025  12:39:50.470432	-2.329385E-1
4/7/2025  12:39:50.470932	-2.335894E-1
4/7/2025  12:39:50.471432	-2.326130E-1
4/7/2025  12:39:50.471932	-2.329385E-1
4/7/2025  12:39:50.472432	-2.309857E-1
4/7/2025  12:39:50.472932	-2.332639E-1
4/7/2025  12:39:50.473432	-2.368441E-1
4/7/2025  12:39:50.473932	-2.365186E-1
4/7/2025  12:39:50.474432	-2.251273E-1
4/7/2025  12:39:50.474932	-2.348913E-1
4/7/2025  12:39:50.475432	-2.306602E-1
4/7/2025  12:39:50.475932	-2.381459E-1
4/7/2025  12:39:50.476432	-2.365186E-1
4/7/2025  12:39:50.476932	-2.387969E-1
4/7/2025  12:39:50.477432	-2.466081E-1
4/7/2025  12:39:50.477932	-2.511646E-1
4/7/2025  12:39:50.478432	-2.596267E-1
4/7/2025  12:39:50.478932	-2.654851E-1
4/7/2025  12:39:50.479432	-2.664615E-1
4/7/2025  12:39:50.479932	-2.719944E-1
4/7/2025  12:39:50.480432	-2.791547E-1
4/7/2025  12:39:50.480932	-2.830603E-1
4/7/2025  12:39:50.481432	-2.869659E-1
4/7/2025  12:39:50.481932	-2.895696E-1
4/7/2025  12:39:50.482432	-2.902205E-1
4/7/2025  12:39:50.482932	-2.947771E-1
4/7/2025  12:39:50.483432	-2.986827E-1
4/7/2025  12:39:50.483932	-3.055175E-1
4/7/2025  12:39:50.484432	-3.100740E-1
4/7/2025  12:39:50.484932	-3.162579E-1
4/7/2025  12:39:50.485432	-3.152815E-1
4/7/2025  12:39:50.485932	-3.152815E-1
4/7/2025  12:39:50.486432	-3.133287E-1
4/7/2025  12:39:50.486932	-3.130032E-1
4/7/2025  12:39:50.487432	-3.162579E-1
4/7/2025  12:39:50.487932	-3.162579E-1
4/7/2025  12:39:50.488432	-3.133287E-1
4/7/2025  12:39:50.488932	-3.123523E-1
4/7/2025  12:39:50.489432	-3.074703E-1
4/7/2025  12:39:50.489932	-3.074703E-1
4/7/2025  12:39:50.490432	-3.032392E-1
4/7/2025  12:39:50.490932	-2.970553E-1
4/7/2025  12:39:50.491432	-2.970553E-1
4/7/2025  12:39:50.491932	-2.934752E-1
4/7/2025  12:39:50.492432	-2.934752E-1
4/7/2025  12:39:50.492932	-2.967299E-1
4/7/2025  12:39:50.493432	-2.967299E-1
4/7/2025  12:39:50.493932	-2.924988E-1
4/7/2025  12:39:50.494432	-2.915224E-1
4/7/2025  12:39:50.494932	-2.781783E-1
4/7/2025  12:39:50.495432	-2.820839E-1
4/7/2025  12:39:50.495932	-2.820839E-1
4/7/2025  12:39:50.496432	-2.798056E-1
4/7/2025  12:39:50.496932	-2.772019E-1
4/7/2025  12:39:50.497432	-2.856640E-1
4/7/2025  12:39:50.497932	-2.931497E-1
4/7/2025  12:39:50.498432	-2.954280E-1
4/7/2025  12:39:50.498932	-2.977063E-1
4/7/2025  12:39:50.499432	-3.022628E-1
4/7/2025  12:39:50.499932	-3.045411E-1
4/7/2025  12:39:50.500432	-3.077957E-1
4/7/2025  12:39:50.500932	-3.097485E-1
4/7/2025  12:39:50.501432	-3.110504E-1
4/7/2025  12:39:50.501932	-3.042156E-1
4/7/2025  12:39:50.502432	-3.087721E-1
4/7/2025  12:39:50.502932	-3.133287E-1
4/7/2025  12:39:50.503432	-3.201635E-1
4/7/2025  12:39:50.503932	-3.230926E-1
4/7/2025  12:39:50.504432	-3.260218E-1
4/7/2025  12:39:50.504932	-3.299274E-1
4/7/2025  12:39:50.505432	-3.322057E-1
4/7/2025  12:39:50.505932	-3.309038E-1
4/7/2025  12:39:50.506432	-3.292765E-1
4/7/2025  12:39:50.506932	-3.318802E-1
4/7/2025  12:39:50.507432	-3.269982E-1
4/7/2025  12:39:50.507932	-3.247200E-1
4/7/2025  12:39:50.508432	-3.240690E-1
4/7/2025  12:39:50.508932	-3.224417E-1
4/7/2025  12:39:50.509432	-3.159324E-1
4/7/2025  12:39:50.509932	-3.156069E-1
4/7/2025  12:39:50.510432	-3.136541E-1
4/7/2025  12:39:50.510932	-3.139796E-1
4/7/2025  12:39:50.511432	-3.058429E-1
4/7/2025  12:39:50.511932	-3.042156E-1
4/7/2025  12:39:50.512432	-3.035647E-1
4/7/2025  12:39:50.512932	-2.996591E-1
4/7/2025  12:39:50.513432	-2.977063E-1
4/7/2025  12:39:50.513932	-2.957535E-1
4/7/2025  12:39:50.514432	-2.924988E-1
4/7/2025  12:39:50.514932	-2.876168E-1
4/7/2025  12:39:50.515432	-2.905460E-1
4/7/2025  12:39:50.515932	-2.830603E-1
4/7/2025  12:39:50.516432	-2.833858E-1
4/7/2025  12:39:50.516932	-2.911969E-1
4/7/2025  12:39:50.517432	-2.934752E-1
4/7/2025  12:39:50.517932	-2.954280E-1
4/7/2025  12:39:50.518432	-3.006355E-1
4/7/2025  12:39:50.518932	-3.035647E-1
4/7/2025  12:39:50.519432	-3.038901E-1
4/7/2025  12:39:50.519932	-3.074703E-1
4/7/2025  12:39:50.520432	-3.090976E-1
4/7/2025  12:39:50.520932	-3.071448E-1
4/7/2025  12:39:50.521432	-3.130032E-1
4/7/2025  12:39:50.521932	-3.139796E-1
4/7/2025  12:39:50.522432	-3.169088E-1
4/7/2025  12:39:50.522932	-3.263473E-1
4/7/2025  12:39:50.523432	-3.305784E-1
4/7/2025  12:39:50.523932	-3.341585E-1
4/7/2025  12:39:50.524432	-3.380641E-1
4/7/2025  12:39:50.524932	-3.396914E-1
4/7/2025  12:39:50.525432	-3.348094E-1
4/7/2025  12:39:50.525932	-3.367622E-1
4/7/2025  12:39:50.526432	-3.351349E-1
4/7/2025  12:39:50.526932	-3.322057E-1
4/7/2025  12:39:50.527432	-3.325312E-1
4/7/2025  12:39:50.527932	-3.292765E-1
4/7/2025  12:39:50.528432	-3.263473E-1
4/7/2025  12:39:50.528932	-3.240690E-1
4/7/2025  12:39:50.529432	-3.211398E-1
4/7/2025  12:39:50.529932	-3.139796E-1
4/7/2025  12:39:50.530432	-3.149560E-1
4/7/2025  12:39:50.530932	-3.126777E-1
4/7/2025  12:39:50.531432	-3.113759E-1
4/7/2025  12:39:50.531932	-3.090976E-1
4/7/2025  12:39:50.532432	-3.064939E-1
4/7/2025  12:39:50.532932	-3.064939E-1
4/7/2025  12:39:50.533432	-2.999845E-1
4/7/2025  12:39:50.533932	-2.967299E-1
4/7/2025  12:39:50.534432	-2.960789E-1
4/7/2025  12:39:50.534932	-2.911969E-1
4/7/2025  12:39:50.535432	-2.853386E-1
4/7/2025  12:39:50.535932	-2.837112E-1
4/7/2025  12:39:50.536432	-2.960789E-1
4/7/2025  12:39:50.536932	-2.931497E-1
4/7/2025  12:39:50.537432	-2.990081E-1
4/7/2025  12:39:50.537932	-3.009609E-1
4/7/2025  12:39:50.538432	-3.058429E-1
4/7/2025  12:39:50.538932	-3.055175E-1
4/7/2025  12:39:50.539432	-3.120268E-1
4/7/2025  12:39:50.539932	-3.087721E-1
4/7/2025  12:39:50.540432	-3.120268E-1
4/7/2025  12:39:50.540932	-3.143051E-1
4/7/2025  12:39:50.541432	-3.185361E-1
4/7/2025  12:39:50.541932	-3.201635E-1
4/7/2025  12:39:50.542432	-3.237436E-1
4/7/2025  12:39:50.542932	-3.182107E-1
4/7/2025  12:39:50.543432	-3.266728E-1
4/7/2025  12:39:50.543932	-3.361113E-1
4/7/2025  12:39:50.544432	-3.315548E-1
4/7/2025  12:39:50.544932	-3.318802E-1
4/7/2025  12:39:50.545432	-3.377386E-1
4/7/2025  12:39:50.545932	-3.419697E-1
4/7/2025  12:39:50.546432	-3.318802E-1
4/7/2025  12:39:50.546932	-3.383896E-1
4/7/2025  12:39:50.547432	-3.328566E-1
4/7/2025  12:39:50.547932	-3.279746E-1
4/7/2025  12:39:50.548432	-3.240690E-1
4/7/2025  12:39:50.548932	-3.204889E-1
4/7/2025  12:39:50.549432	-3.139796E-1
4/7/2025  12:39:50.549932	-3.130032E-1
4/7/2025  12:39:50.550432	-3.117013E-1
4/7/2025  12:39:50.550932	-3.126777E-1
4/7/2025  12:39:50.551432	-3.100740E-1
4/7/2025  12:39:50.551932	-3.077957E-1
4/7/2025  12:39:50.552432	-3.032392E-1
4/7/2025  12:39:50.552932	-3.029137E-1
4/7/2025  12:39:50.553432	-3.006355E-1
4/7/2025  12:39:50.553932	-2.944516E-1
4/7/2025  12:39:50.554432	-2.882678E-1
4/7/2025  12:39:50.554932	-2.911969E-1
4/7/2025  12:39:50.555432	-2.840367E-1
4/7/2025  12:39:50.555932	-2.902205E-1
4/7/2025  12:39:50.556432	-2.898951E-1
4/7/2025  12:39:50.556932	-2.928243E-1
4/7/2025  12:39:50.557432	-2.967299E-1
4/7/2025  12:39:50.557932	-2.996591E-1
4/7/2025  12:39:50.558432	-3.012864E-1
4/7/2025  12:39:50.558932	-3.032392E-1
4/7/2025  12:39:50.559432	-3.061684E-1
4/7/2025  12:39:50.559932	-3.097485E-1
4/7/2025  12:39:50.560432	-3.136541E-1
4/7/2025  12:39:50.560932	-3.175597E-1
4/7/2025  12:39:50.561432	-3.211398E-1
4/7/2025  12:39:50.561932	-3.214653E-1
4/7/2025  12:39:50.562432	-3.221162E-1
4/7/2025  12:39:50.562932	-3.240690E-1
4/7/2025  12:39:50.563432	-3.325312E-1
4/7/2025  12:39:50.563932	-3.299274E-1
4/7/2025  12:39:50.564432	-3.377386E-1
4/7/2025  12:39:50.564932	-3.380641E-1
4/7/2025  12:39:50.565432	-3.429461E-1
4/7/2025  12:39:50.565932	-3.380641E-1
4/7/2025  12:39:50.566432	-3.419697E-1
4/7/2025  12:39:50.566932	-3.377386E-1
4/7/2025  12:39:50.567432	-3.341585E-1
4/7/2025  12:39:50.567932	-3.286256E-1
4/7/2025  12:39:50.568432	-3.256964E-1
4/7/2025  12:39:50.568932	-3.243945E-1
4/7/2025  12:39:50.569432	-3.204889E-1
4/7/2025  12:39:50.569932	-3.198380E-1
4/7/2025  12:39:50.570432	-3.152815E-1
4/7/2025  12:39:50.570932	-3.169088E-1
4/7/2025  12:39:50.571432	-3.120268E-1
4/7/2025  12:39:50.571932	-3.110504E-1
4/7/2025  12:39:50.572432	-3.081212E-1
4/7/2025  12:39:50.572932	-3.048665E-1
4/7/2025  12:39:50.573432	-2.990081E-1
4/7/2025  12:39:50.573932	-2.993336E-1
4/7/2025  12:39:50.574432	-2.931497E-1
4/7/2025  12:39:50.574932	-2.954280E-1
4/7/2025  12:39:50.575432	-2.934752E-1
4/7/2025  12:39:50.575932	-2.993336E-1
4/7/2025  12:39:50.576432	-2.921733E-1
4/7/2025  12:39:50.576932	-2.924988E-1
4/7/2025  12:39:50.577432	-2.983572E-1
4/7/2025  12:39:50.577932	-2.967299E-1
4/7/2025  12:39:50.578432	-3.029137E-1
4/7/2025  12:39:50.578932	-3.087721E-1
4/7/2025  12:39:50.579432	-3.110504E-1
4/7/2025  12:39:50.579932	-3.159324E-1
4/7/2025  12:39:50.580432	-3.172343E-1
4/7/2025  12:39:50.580932	-3.204889E-1
4/7/2025  12:39:50.581432	-3.217908E-1
4/7/2025  12:39:50.581932	-3.224417E-1
4/7/2025  12:39:50.582432	-3.188616E-1
4/7/2025  12:39:50.582932	-3.296020E-1
4/7/2025  12:39:50.583432	-3.354604E-1
4/7/2025  12:39:50.583932	-3.344840E-1
4/7/2025  12:39:50.584432	-3.354604E-1
4/7/2025  12:39:50.584932	-3.364368E-1
4/7/2025  12:39:50.585432	-3.448989E-1
4/7/2025  12:39:50.585932	-3.396914E-1
4/7/2025  12:39:50.586432	-3.429461E-1
4/7/2025  12:39:50.586932	-3.380641E-1
4/7/2025  12:39:50.587432	-3.364368E-1
4/7/2025  12:39:50.587932	-3.325312E-1
4/7/2025  12:39:50.588432	-3.315548E-1
4/7/2025  12:39:50.588932	-3.299274E-1
4/7/2025  12:39:50.589432	-3.266728E-1
4/7/2025  12:39:50.589932	-3.243945E-1
4/7/2025  12:39:50.590432	-3.214653E-1
4/7/2025  12:39:50.590932	-3.149560E-1
4/7/2025  12:39:50.591432	-3.178852E-1
4/7/2025  12:39:50.591932	-3.156069E-1
4/7/2025  12:39:50.592432	-3.169088E-1
4/7/2025  12:39:50.592932	-3.152815E-1
4/7/2025  12:39:50.593432	-3.090976E-1
4/7/2025  12:39:50.593932	-3.061684E-1
4/7/2025  12:39:50.594432	-2.996591E-1
4/7/2025  12:39:50.594932	-3.048665E-1
4/7/2025  12:39:50.595432	-2.977063E-1
4/7/2025  12:39:50.595932	-2.954280E-1
4/7/2025  12:39:50.596432	-3.003100E-1
4/7/2025  12:39:50.596932	-3.103995E-1
4/7/2025  12:39:50.597432	-3.077957E-1
4/7/2025  12:39:50.597932	-3.077957E-1
4/7/2025  12:39:50.598432	-3.146305E-1
4/7/2025  12:39:50.598932	-3.159324E-1
4/7/2025  12:39:50.599432	-3.175597E-1
4/7/2025  12:39:50.599932	-3.230926E-1
4/7/2025  12:39:50.600432	-3.224417E-1
4/7/2025  12:39:50.600932	-3.253709E-1
4/7/2025  12:39:50.601432	-3.283001E-1
4/7/2025  12:39:50.601932	-3.351349E-1
4/7/2025  12:39:50.602432	-3.383896E-1
4/7/2025  12:39:50.602932	-3.344840E-1
4/7/2025  12:39:50.603432	-3.383896E-1
4/7/2025  12:39:50.603932	-3.452244E-1
4/7/2025  12:39:50.604432	-3.439225E-1
4/7/2025  12:39:50.604932	-3.465262E-1
4/7/2025  12:39:50.605432	-3.462008E-1
4/7/2025  12:39:50.605932	-3.514082E-1
4/7/2025  12:39:50.606432	-3.501064E-1
4/7/2025  12:39:50.606932	-3.481536E-1
4/7/2025  12:39:50.607432	-3.406678E-1
4/7/2025  12:39:50.607932	-3.396914E-1
4/7/2025  12:39:50.608432	-3.361113E-1
4/7/2025  12:39:50.608932	-3.296020E-1
4/7/2025  12:39:50.609432	-3.286256E-1
4/7/2025  12:39:50.609932	-3.273237E-1
4/7/2025  12:39:50.610432	-3.240690E-1
4/7/2025  12:39:50.610932	-3.253709E-1
4/7/2025  12:39:50.611432	-3.204889E-1
4/7/2025  12:39:50.611932	-3.217908E-1
4/7/2025  12:39:50.612432	-3.185361E-1
4/7/2025  12:39:50.612932	-3.201635E-1
4/7/2025  12:39:50.613432	-3.130032E-1
4/7/2025  12:39:50.613932	-3.074703E-1
4/7/2025  12:39:50.614432	-3.110504E-1
4/7/2025  12:39:50.614932	-3.029137E-1
4/7/2025  12:39:50.615432	-3.042156E-1
4/7/2025  12:39:50.615932	-3.123523E-1
4/7/2025  12:39:50.616432	-3.068193E-1
4/7/2025  12:39:50.616932	-3.077957E-1
4/7/2025  12:39:50.617432	-3.117013E-1
4/7/2025  12:39:50.617932	-3.149560E-1
4/7/2025  12:39:50.618432	-3.136541E-1
4/7/2025  12:39:50.618932	-3.182107E-1
4/7/2025  12:39:50.619432	-3.214653E-1
4/7/2025  12:39:50.619932	-3.247200E-1
4/7/2025  12:39:50.620432	-3.296020E-1
4/7/2025  12:39:50.620932	-3.354604E-1
4/7/2025  12:39:50.621432	-3.377386E-1
4/7/2025  12:39:50.621932	-3.367622E-1
4/7/2025  12:39:50.622432	-3.455498E-1
4/7/2025  12:39:50.622932	-3.406678E-1
4/7/2025  12:39:50.623432	-3.465262E-1
4/7/2025  12:39:50.623932	-3.468517E-1
4/7/2025  12:39:50.624432	-3.488045E-1
4/7/2025  12:39:50.624932	-3.514082E-1
4/7/2025  12:39:50.625432	-3.527101E-1
4/7/2025  12:39:50.625932	-3.543374E-1
4/7/2025  12:39:50.626432	-3.501064E-1
4/7/2025  12:39:50.626932	-3.478281E-1
4/7/2025  12:39:50.627432	-3.445734E-1
4/7/2025  12:39:50.627932	-3.390405E-1
4/7/2025  12:39:50.628432	-3.374132E-1
4/7/2025  12:39:50.628932	-3.309038E-1
4/7/2025  12:39:50.629432	-3.273237E-1
4/7/2025  12:39:50.629932	-3.263473E-1
4/7/2025  12:39:50.630432	-3.243945E-1
4/7/2025  12:39:50.630932	-3.247200E-1
4/7/2025  12:39:50.631432	-3.224417E-1
4/7/2025  12:39:50.631932	-3.149560E-1
4/7/2025  12:39:50.632432	-3.169088E-1
4/7/2025  12:39:50.632932	-3.120268E-1
4/7/2025  12:39:50.633432	-3.074703E-1
4/7/2025  12:39:50.633932	-3.035647E-1
4/7/2025  12:39:50.634432	-2.999845E-1
4/7/2025  12:39:50.634932	-2.954280E-1
4/7/2025  12:39:50.635432	-2.944516E-1
4/7/2025  12:39:50.635932	-3.022628E-1
4/7/2025  12:39:50.636432	-2.973808E-1
4/7/2025  12:39:50.636932	-3.003100E-1
4/7/2025  12:39:50.637432	-3.009609E-1
4/7/2025  12:39:50.637932	-3.029137E-1
4/7/2025  12:39:50.638432	-3.058429E-1
4/7/2025  12:39:50.638932	-3.074703E-1
4/7/2025  12:39:50.639432	-3.117013E-1
4/7/2025  12:39:50.639932	-3.133287E-1
4/7/2025  12:39:50.640432	-3.178852E-1
4/7/2025  12:39:50.640932	-3.201635E-1
4/7/2025  12:39:50.641432	-3.198380E-1
4/7/2025  12:39:50.641932	-3.260218E-1
4/7/2025  12:39:50.642432	-3.221162E-1
4/7/2025  12:39:50.642932	-3.240690E-1
4/7/2025  12:39:50.643432	-3.256964E-1
4/7/2025  12:39:50.643932	-3.260218E-1
4/7/2025  12:39:50.644432	-3.302529E-1
4/7/2025  12:39:50.644932	-3.309038E-1
4/7/2025  12:39:50.645432	-3.367622E-1
4/7/2025  12:39:50.645932	-3.299274E-1
4/7/2025  12:39:50.646432	-3.292765E-1
4/7/2025  12:39:50.646932	-3.341585E-1
4/7/2025  12:39:50.647432	-3.276492E-1
4/7/2025  12:39:50.647932	-3.172343E-1
4/7/2025  12:39:50.648432	-3.175597E-1
4/7/2025  12:39:50.648932	-3.143051E-1
4/7/2025  12:39:50.649432	-3.117013E-1
4/7/2025  12:39:50.649932	-3.100740E-1
4/7/2025  12:39:50.650432	-3.055175E-1
4/7/2025  12:39:50.650932	-2.980317E-1
4/7/2025  12:39:50.651432	-2.999845E-1
4/7/2025  12:39:50.651932	-2.957535E-1
4/7/2025  12:39:50.652432	-2.918479E-1
4/7/2025  12:39:50.652932	-2.869659E-1
4/7/2025  12:39:50.653432	-2.827348E-1
4/7/2025  12:39:50.653932	-2.817584E-1
4/7/2025  12:39:50.654432	-2.732963E-1
4/7/2025  12:39:50.654932	-2.716690E-1
4/7/2025  12:39:50.655432	-2.775274E-1
4/7/2025  12:39:50.655932	-2.651596E-1
4/7/2025  12:39:50.656432	-2.745982E-1
4/7/2025  12:39:50.656932	-2.765510E-1
4/7/2025  12:39:50.657432	-2.713435E-1
4/7/2025  12:39:50.657932	-2.736218E-1
4/7/2025  12:39:50.658432	-2.759000E-1
4/7/2025  12:39:50.658932	-2.785038E-1
4/7/2025  12:39:50.659432	-2.817584E-1
4/7/2025  12:39:50.659932	-2.833858E-1
4/7/2025  12:39:50.660432	-2.833858E-1
4/7/2025  12:39:50.660932	-2.837112E-1
4/7/2025  12:39:50.661432	-2.876168E-1
4/7/2025  12:39:50.661932	-2.892441E-1
4/7/2025  12:39:50.662432	-2.885932E-1
4/7/2025  12:39:50.662932	-2.918479E-1
4/7/2025  12:39:50.663432	-2.885932E-1
4/7/2025  12:39:50.663932	-2.993336E-1
4/7/2025  12:39:50.664432	-2.999845E-1
4/7/2025  12:39:50.664932	-3.051920E-1
4/7/2025  12:39:50.665432	-3.042156E-1
4/7/2025  12:39:50.665932	-3.035647E-1
4/7/2025  12:39:50.666432	-2.951025E-1
4/7/2025  12:39:50.666932	-2.951025E-1
4/7/2025  12:39:50.667432	-2.895696E-1
4/7/2025  12:39:50.667932	-2.846876E-1
4/7/2025  12:39:50.668432	-2.804566E-1
4/7/2025  12:39:50.668932	-2.772019E-1
4/7/2025  12:39:50.669432	-2.739472E-1
4/7/2025  12:39:50.669932	-2.697162E-1
4/7/2025  12:39:50.670432	-2.658106E-1
4/7/2025  12:39:50.670932	-2.606031E-1
4/7/2025  12:39:50.671432	-2.596267E-1
4/7/2025  12:39:50.671932	-2.563720E-1
4/7/2025  12:39:50.672432	-2.508391E-1
4/7/2025  12:39:50.672932	-2.420515E-1
4/7/2025  12:39:50.673432	-2.371695E-1
4/7/2025  12:39:50.673932	-2.316366E-1
4/7/2025  12:39:50.674432	-2.365186E-1
4/7/2025  12:39:50.674932	-2.169906E-1
4/7/2025  12:39:50.675432	-2.254527E-1
4/7/2025  12:39:50.675932	-2.221981E-1
4/7/2025  12:39:50.676432	-2.082030E-1
4/7/2025  12:39:50.676932	-2.134105E-1
4/7/2025  12:39:50.677432	-2.179670E-1
4/7/2025  12:39:50.677932	-2.189434E-1
4/7/2025  12:39:50.678432	-2.166652E-1
4/7/2025  12:39:50.678932	-2.173161E-1
4/7/2025  12:39:50.679432	-2.182925E-1
4/7/2025  12:39:50.679932	-2.212217E-1
4/7/2025  12:39:50.680432	-2.147124E-1
4/7/2025  12:39:50.680932	-2.218726E-1
4/7/2025  12:39:50.681432	-2.251273E-1
4/7/2025  12:39:50.681932	-2.257782E-1
4/7/2025  12:39:50.682432	-2.235000E-1
4/7/2025  12:39:50.682932	-2.274055E-1
4/7/2025  12:39:50.683432	-2.361931E-1
4/7/2025  12:39:50.683932	-2.261037E-1
4/7/2025  12:39:50.684432	-2.339149E-1
4/7/2025  12:39:50.684932	-2.410751E-1
4/7/2025  12:39:50.685432	-2.342403E-1
4/7/2025  12:39:50.685932	-2.352167E-1
4/7/2025  12:39:50.686432	-2.378205E-1
4/7/2025  12:39:50.686932	-2.326130E-1
4/7/2025  12:39:50.687432	-2.274055E-1
4/7/2025  12:39:50.687932	-2.296838E-1
4/7/2025  12:39:50.688432	-2.231745E-1
4/7/2025  12:39:50.688932	-2.176416E-1
4/7/2025  12:39:50.689432	-2.130850E-1
4/7/2025  12:39:50.689932	-2.062502E-1
4/7/2025  12:39:50.690432	-2.104813E-1
4/7/2025  12:39:50.690932	-2.062502E-1
4/7/2025  12:39:50.691432	-1.997409E-1
4/7/2025  12:39:50.691932	-2.007173E-1
4/7/2025  12:39:50.692432	-1.964862E-1
4/7/2025  12:39:50.692932	-1.919297E-1
4/7/2025  12:39:50.693432	-1.876987E-1
4/7/2025  12:39:50.693932	-1.808639E-1
4/7/2025  12:39:50.694432	-1.737036E-1
4/7/2025  12:39:50.694932	-1.782601E-1
4/7/2025  12:39:50.695432	-1.623123E-1
4/7/2025  12:39:50.695932	-1.831421E-1
4/7/2025  12:39:50.696432	-1.688216E-1
4/7/2025  12:39:50.696932	-1.668688E-1
4/7/2025  12:39:50.697432	-1.740291E-1
4/7/2025  12:39:50.697932	-1.763073E-1
4/7/2025  12:39:50.698432	-1.805384E-1
4/7/2025  12:39:50.698932	-1.789111E-1
4/7/2025  12:39:50.699432	-1.789111E-1
4/7/2025  12:39:50.699932	-1.854204E-1
4/7/2025  12:39:50.700432	-1.867223E-1
4/7/2025  12:39:50.700932	-1.919297E-1
4/7/2025  12:39:50.701432	-1.945334E-1
4/7/2025  12:39:50.701932	-1.808639E-1
4/7/2025  12:39:50.702432	-2.059248E-1
4/7/2025  12:39:50.702932	-2.082030E-1
4/7/2025  12:39:50.703432	-2.033210E-1
4/7/2025  12:39:50.703932	-2.062502E-1
4/7/2025  12:39:50.704432	-2.101558E-1
4/7/2025  12:39:50.704932	-2.143869E-1
4/7/2025  12:39:50.705432	-2.137360E-1
4/7/2025  12:39:50.705932	-2.134105E-1
4/7/2025  12:39:50.706432	-2.192689E-1
4/7/2025  12:39:50.706932	-2.169906E-1
4/7/2025  12:39:50.707432	-2.205708E-1
4/7/2025  12:39:50.707932	-2.205708E-1
4/7/2025  12:39:50.708432	-2.134105E-1
4/7/2025  12:39:50.708932	-2.134105E-1
4/7/2025  12:39:50.709432	-2.042974E-1
4/7/2025  12:39:50.709932	-1.981136E-1
4/7/2025  12:39:50.710432	-1.977881E-1
4/7/2025  12:39:50.710932	-1.951844E-1
4/7/2025  12:39:50.711432	-1.945334E-1
4/7/2025  12:39:50.711932	-1.948589E-1
4/7/2025  12:39:50.712432	-1.974626E-1
4/7/2025  12:39:50.712932	-1.886751E-1
4/7/2025  12:39:50.713432	-1.890005E-1
4/7/2025  12:39:50.713932	-1.811893E-1
4/7/2025  12:39:50.714432	-1.860713E-1
4/7/2025  12:39:50.714932	-1.710999E-1
4/7/2025  12:39:50.715432	-1.649160E-1
4/7/2025  12:39:50.715932	-1.890005E-1
4/7/2025  12:39:50.716432	-1.671943E-1
4/7/2025  12:39:50.716932	-1.737036E-1
4/7/2025  12:39:50.717432	-1.759819E-1
4/7/2025  12:39:50.717932	-1.824912E-1
4/7/2025  12:39:50.718432	-1.863968E-1
4/7/2025  12:39:50.718932	-1.870477E-1
4/7/2025  12:39:50.719432	-1.912788E-1
4/7/2025  12:39:50.719932	-1.945334E-1
4/7/2025  12:39:50.720432	-1.974626E-1
4/7/2025  12:39:50.720932	-1.997409E-1
4/7/2025  12:39:50.721432	-2.013682E-1
4/7/2025  12:39:50.721932	-2.020192E-1
4/7/2025  12:39:50.722432	-2.033210E-1
4/7/2025  12:39:50.722932	-2.182925E-1
4/7/2025  12:39:50.723432	-2.173161E-1
4/7/2025  12:39:50.723932	-2.306602E-1
4/7/2025  12:39:50.724432	-2.261037E-1
4/7/2025  12:39:50.724932	-2.433534E-1
4/7/2025  12:39:50.725432	-2.221981E-1
4/7/2025  12:39:50.725932	-2.335894E-1
4/7/2025  12:39:50.726432	-2.335894E-1
4/7/2025  12:39:50.726932	-2.290329E-1
4/7/2025  12:39:50.727432	-2.306602E-1
4/7/2025  12:39:50.727932	-2.322875E-1
4/7/2025  12:39:50.728432	-2.257782E-1
4/7/2025  12:39:50.728932	-2.254527E-1
4/7/2025  12:39:50.729432	-2.212217E-1
4/7/2025  12:39:50.729932	-2.127596E-1
4/7/2025  12:39:50.730432	-2.124341E-1
4/7/2025  12:39:50.730932	-2.137360E-1
4/7/2025  12:39:50.731432	-2.095049E-1
4/7/2025  12:39:50.731932	-2.117832E-1
4/7/2025  12:39:50.732432	-2.069012E-1
4/7/2025  12:39:50.732932	-2.078776E-1
4/7/2025  12:39:50.733432	-2.033210E-1
4/7/2025  12:39:50.733932	-1.994154E-1
4/7/2025  12:39:50.734432	-2.010428E-1
4/7/2025  12:39:50.734932	-1.984390E-1
4/7/2025  12:39:50.735432	-1.909533E-1
4/7/2025  12:39:50.735932	-2.069012E-1
4/7/2025  12:39:50.736432	-2.026701E-1
4/7/2025  12:39:50.736932	-1.977881E-1
4/7/2025  12:39:50.737432	-2.101558E-1
4/7/2025  12:39:50.737932	-2.101558E-1
4/7/2025  12:39:50.738432	-2.134105E-1
4/7/2025  12:39:50.738932	-2.153633E-1
4/7/2025  12:39:50.739432	-2.221981E-1
4/7/2025  12:39:50.739932	-2.244763E-1
4/7/2025  12:39:50.740432	-2.274055E-1
4/7/2025  12:39:50.740932	-2.309857E-1
4/7/2025  12:39:50.741432	-2.348913E-1
4/7/2025  12:39:50.741932	-2.300093E-1
4/7/2025  12:39:50.742432	-2.368441E-1
4/7/2025  12:39:50.742932	-2.414006E-1
4/7/2025  12:39:50.743432	-2.430279E-1
4/7/2025  12:39:50.743932	-2.498627E-1
4/7/2025  12:39:50.744432	-2.540938E-1
4/7/2025  12:39:50.744932	-2.589758E-1
4/7/2025  12:39:50.745432	-2.658106E-1
4/7/2025  12:39:50.745932	-2.596267E-1
4/7/2025  12:39:50.746432	-2.602776E-1
4/7/2025  12:39:50.746932	-2.583248E-1
4/7/2025  12:39:50.747432	-2.563720E-1
4/7/2025  12:39:50.747932	-2.586503E-1
4/7/2025  12:39:50.748432	-2.560466E-1
4/7/2025  12:39:50.748932	-2.511646E-1
4/7/2025  12:39:50.749432	-2.511646E-1
4/7/2025  12:39:50.749932	-2.472590E-1
4/7/2025  12:39:50.750432	-2.430279E-1
4/7/2025  12:39:50.750932	-2.387969E-1
4/7/2025  12:39:50.751432	-2.345658E-1
4/7/2025  12:39:50.751932	-2.355422E-1
4/7/2025  12:39:50.752432	-2.326130E-1
4/7/2025  12:39:50.752932	-2.264291E-1
4/7/2025  12:39:50.753432	-2.221981E-1
4/7/2025  12:39:50.753932	-2.235000E-1
4/7/2025  12:39:50.754432	-2.179670E-1
4/7/2025  12:39:50.754932	-2.215472E-1
4/7/2025  12:39:50.755432	-2.221981E-1
4/7/2025  12:39:50.755932	-2.218726E-1
4/7/2025  12:39:50.756432	-2.059248E-1
4/7/2025  12:39:50.756932	-2.088540E-1
4/7/2025  12:39:50.757432	-2.147124E-1
4/7/2025  12:39:50.757932	-2.169906E-1
4/7/2025  12:39:50.758432	-2.137360E-1
4/7/2025  12:39:50.758932	-2.274055E-1
4/7/2025  12:39:50.759432	-2.290329E-1
4/7/2025  12:39:50.759932	-2.348913E-1
4/7/2025  12:39:50.760432	-2.381459E-1
4/7/2025  12:39:50.760932	-2.394478E-1
4/7/2025  12:39:50.761432	-2.430279E-1
4/7/2025  12:39:50.761932	-2.394478E-1
4/7/2025  12:39:50.762432	-2.397733E-1
4/7/2025  12:39:50.762932	-2.511646E-1
4/7/2025  12:39:50.763432	-2.579994E-1
4/7/2025  12:39:50.763932	-2.557211E-1
4/7/2025  12:39:50.764432	-2.599522E-1
4/7/2025  12:39:50.764932	-2.684143E-1
4/7/2025  12:39:50.765432	-2.716690E-1
4/7/2025  12:39:50.765932	-2.693907E-1
4/7/2025  12:39:50.766432	-2.671124E-1
4/7/2025  12:39:50.766932	-2.677634E-1
4/7/2025  12:39:50.767432	-2.628814E-1
4/7/2025  12:39:50.767932	-2.612540E-1
4/7/2025  12:39:50.768432	-2.553957E-1
4/7/2025  12:39:50.768932	-2.540938E-1
4/7/2025  12:39:50.769432	-2.521410E-1
4/7/2025  12:39:50.769932	-2.482354E-1
4/7/2025  12:39:50.770432	-2.436789E-1
4/7/2025  12:39:50.770932	-2.475845E-1
4/7/2025  12:39:50.771432	-2.459571E-1
4/7/2025  12:39:50.771932	-2.417261E-1
4/7/2025  12:39:50.772432	-2.387969E-1
4/7/2025  12:39:50.772932	-2.313111E-1
4/7/2025  12:39:50.773432	-2.277310E-1
4/7/2025  12:39:50.773932	-2.235000E-1
4/7/2025  12:39:50.774432	-2.186180E-1
4/7/2025  12:39:50.774932	-2.244763E-1
4/7/2025  12:39:50.775432	-2.244763E-1
4/7/2025  12:39:50.775932	-2.169906E-1
4/7/2025  12:39:50.776432	-2.130850E-1
4/7/2025  12:39:50.776932	-2.212217E-1
4/7/2025  12:39:50.777432	-2.235000E-1
4/7/2025  12:39:50.777932	-2.244763E-1
4/7/2025  12:39:50.778432	-2.231745E-1
4/7/2025  12:39:50.778932	-2.280565E-1
4/7/2025  12:39:50.779432	-2.361931E-1
4/7/2025  12:39:50.779932	-2.348913E-1
4/7/2025  12:39:50.780432	-2.391223E-1
4/7/2025  12:39:50.780932	-2.404242E-1
4/7/2025  12:39:50.781432	-2.440043E-1
4/7/2025  12:39:50.781932	-2.479099E-1
4/7/2025  12:39:50.782432	-2.550702E-1
4/7/2025  12:39:50.782932	-2.547447E-1
4/7/2025  12:39:50.783432	-2.570230E-1
4/7/2025  12:39:50.783932	-2.625559E-1
4/7/2025  12:39:50.784432	-2.606031E-1
4/7/2025  12:39:50.784932	-2.693907E-1
4/7/2025  12:39:50.785432	-2.632068E-1
4/7/2025  12:39:50.785932	-2.739472E-1
4/7/2025  12:39:50.786432	-2.759000E-1
4/7/2025  12:39:50.786932	-2.641832E-1
4/7/2025  12:39:50.787432	-2.615795E-1
4/7/2025  12:39:50.787932	-2.563720E-1
4/7/2025  12:39:50.788432	-2.540938E-1
4/7/2025  12:39:50.788932	-2.524665E-1
4/7/2025  12:39:50.789432	-2.501882E-1
4/7/2025  12:39:50.789932	-2.453062E-1
4/7/2025  12:39:50.790432	-2.446553E-1
4/7/2025  12:39:50.790932	-2.414006E-1
4/7/2025  12:39:50.791432	-2.355422E-1
4/7/2025  12:39:50.791932	-2.348913E-1
4/7/2025  12:39:50.792432	-2.326130E-1
4/7/2025  12:39:50.792932	-2.303347E-1
4/7/2025  12:39:50.793432	-2.264291E-1
4/7/2025  12:39:50.793932	-2.078776E-1
4/7/2025  12:39:50.794432	-2.173161E-1
4/7/2025  12:39:50.794932	-2.189434E-1
4/7/2025  12:39:50.795432	-2.082030E-1
4/7/2025  12:39:50.795932	-2.189434E-1
4/7/2025  12:39:50.796432	-2.108068E-1
4/7/2025  12:39:50.796932	-2.290329E-1
4/7/2025  12:39:50.797432	-2.169906E-1
4/7/2025  12:39:50.797932	-2.150378E-1
4/7/2025  12:39:50.798432	-2.208962E-1
4/7/2025  12:39:50.798932	-2.277310E-1
4/7/2025  12:39:50.799432	-2.316366E-1
4/7/2025  12:39:50.799932	-2.348913E-1
4/7/2025  12:39:50.800432	-2.404242E-1
4/7/2025  12:39:50.800932	-2.420515E-1
4/7/2025  12:39:50.801432	-2.453062E-1
4/7/2025  12:39:50.801932	-2.505137E-1
4/7/2025  12:39:50.802432	-2.456317E-1
4/7/2025  12:39:50.802932	-2.511646E-1
4/7/2025  12:39:50.803432	-2.544193E-1
4/7/2025  12:39:50.803932	-2.583248E-1
4/7/2025  12:39:50.804432	-2.625559E-1
4/7/2025  12:39:50.804932	-2.745982E-1
4/7/2025  12:39:50.805432	-2.772019E-1
4/7/2025  12:39:50.805932	-2.706926E-1
4/7/2025  12:39:50.806432	-2.716690E-1
4/7/2025  12:39:50.806932	-2.693907E-1
4/7/2025  12:39:50.807432	-2.710180E-1
4/7/2025  12:39:50.807932	-2.736218E-1
4/7/2025  12:39:50.808432	-2.641832E-1
4/7/2025  12:39:50.808932	-2.599522E-1
4/7/2025  12:39:50.809432	-2.573484E-1
4/7/2025  12:39:50.809932	-2.550702E-1
4/7/2025  12:39:50.810432	-2.553957E-1
4/7/2025  12:39:50.810932	-2.550702E-1
4/7/2025  12:39:50.811432	-2.534429E-1
4/7/2025  12:39:50.811932	-2.524665E-1
4/7/2025  12:39:50.812432	-2.511646E-1
4/7/2025  12:39:50.812932	-2.427025E-1
4/7/2025  12:39:50.813432	-2.384714E-1
4/7/2025  12:39:50.813932	-2.361931E-1
4/7/2025  12:39:50.814432	-2.254527E-1
4/7/2025  12:39:50.814932	-2.335894E-1
4/7/2025  12:39:50.815432	-2.309857E-1
4/7/2025  12:39:50.815932	-2.365186E-1
4/7/2025  12:39:50.816432	-2.303347E-1
4/7/2025  12:39:50.816932	-2.414006E-1
4/7/2025  12:39:50.817432	-2.322875E-1
4/7/2025  12:39:50.817932	-2.342403E-1
4/7/2025  12:39:50.818432	-2.414006E-1
4/7/2025  12:39:50.818932	-2.433534E-1
4/7/2025  12:39:50.819432	-2.449807E-1
4/7/2025  12:39:50.819932	-2.505137E-1
4/7/2025  12:39:50.820432	-2.531174E-1
4/7/2025  12:39:50.820932	-2.570230E-1
4/7/2025  12:39:50.821432	-2.589758E-1
4/7/2025  12:39:50.821932	-2.599522E-1
4/7/2025  12:39:50.822432	-2.723199E-1
4/7/2025  12:39:50.822932	-2.710180E-1
4/7/2025  12:39:50.823432	-2.723199E-1
4/7/2025  12:39:50.823932	-2.768764E-1
4/7/2025  12:39:50.824432	-2.752491E-1
4/7/2025  12:39:50.824932	-2.902205E-1
4/7/2025  12:39:50.825432	-2.863150E-1
4/7/2025  12:39:50.825932	-2.850131E-1
4/7/2025  12:39:50.826432	-2.840367E-1
4/7/2025  12:39:50.826932	-2.794802E-1
4/7/2025  12:39:50.827432	-2.876168E-1
4/7/2025  12:39:50.827932	-2.830603E-1
4/7/2025  12:39:50.828432	-2.788292E-1
4/7/2025  12:39:50.828932	-2.706926E-1
4/7/2025  12:39:50.829432	-2.713435E-1
4/7/2025  12:39:50.829932	-2.693907E-1
4/7/2025  12:39:50.830432	-2.690652E-1
4/7/2025  12:39:50.830932	-2.700416E-1
4/7/2025  12:39:50.831432	-2.654851E-1
4/7/2025  12:39:50.831932	-2.635323E-1
4/7/2025  12:39:50.832432	-2.635323E-1
4/7/2025  12:39:50.832932	-2.583248E-1
4/7/2025  12:39:50.833432	-2.482354E-1
4/7/2025  12:39:50.833932	-2.443298E-1
4/7/2025  12:39:50.834432	-2.459571E-1
4/7/2025  12:39:50.834932	-2.456317E-1
4/7/2025  12:39:50.835432	-2.378205E-1
4/7/2025  12:39:50.835932	-2.531174E-1
4/7/2025  12:39:50.836432	-2.397733E-1
4/7/2025  12:39:50.836932	-2.414006E-1
4/7/2025  12:39:50.837432	-2.462826E-1
4/7/2025  12:39:50.837932	-2.498627E-1
4/7/2025  12:39:50.838432	-2.521410E-1
4/7/2025  12:39:50.838932	-2.534429E-1
4/7/2025  12:39:50.839432	-2.557211E-1
4/7/2025  12:39:50.839932	-2.596267E-1
4/7/2025  12:39:50.840432	-2.615795E-1
4/7/2025  12:39:50.840932	-2.641832E-1
4/7/2025  12:39:50.841432	-2.690652E-1
4/7/2025  12:39:50.841932	-2.674379E-1
4/7/2025  12:39:50.842432	-2.811075E-1
4/7/2025  12:39:50.842932	-2.820839E-1
4/7/2025  12:39:50.843432	-2.892441E-1
4/7/2025  12:39:50.843932	-2.814330E-1
4/7/2025  12:39:50.844432	-2.915224E-1
4/7/2025  12:39:50.844932	-2.908715E-1
4/7/2025  12:39:50.845432	-2.885932E-1
4/7/2025  12:39:50.845932	-2.924988E-1
4/7/2025  12:39:50.846432	-2.938007E-1
4/7/2025  12:39:50.846932	-2.973808E-1
4/7/2025  12:39:50.847432	-2.915224E-1
4/7/2025  12:39:50.847932	-2.872914E-1
4/7/2025  12:39:50.848432	-2.811075E-1
4/7/2025  12:39:50.848932	-2.804566E-1
4/7/2025  12:39:50.849432	-2.736218E-1
4/7/2025  12:39:50.849932	-2.765510E-1
4/7/2025  12:39:50.850432	-2.687398E-1
4/7/2025  12:39:50.850932	-2.674379E-1
4/7/2025  12:39:50.851432	-2.641832E-1
4/7/2025  12:39:50.851932	-2.645087E-1
4/7/2025  12:39:50.852432	-2.638578E-1
4/7/2025  12:39:50.852932	-2.612540E-1
4/7/2025  12:39:50.853432	-2.511646E-1
4/7/2025  12:39:50.853932	-2.459571E-1
4/7/2025  12:39:50.854432	-2.488863E-1
4/7/2025  12:39:50.854932	-2.466081E-1
4/7/2025  12:39:50.855432	-2.492118E-1
4/7/2025  12:39:50.855932	-2.446553E-1
4/7/2025  12:39:50.856432	-2.498627E-1
4/7/2025  12:39:50.856932	-2.566975E-1
4/7/2025  12:39:50.857432	-2.544193E-1
4/7/2025  12:39:50.857932	-2.540938E-1
4/7/2025  12:39:50.858432	-2.540938E-1
4/7/2025  12:39:50.858932	-2.606031E-1
4/7/2025  12:39:50.859432	-2.641832E-1
4/7/2025  12:39:50.859932	-2.667870E-1
4/7/2025  12:39:50.860432	-2.697162E-1
4/7/2025  12:39:50.860932	-2.759000E-1
4/7/2025  12:39:50.861432	-2.745982E-1
4/7/2025  12:39:50.861932	-2.765510E-1
4/7/2025  12:39:50.862432	-2.807820E-1
4/7/2025  12:39:50.862932	-2.846876E-1
4/7/2025  12:39:50.863432	-2.811075E-1
4/7/2025  12:39:50.863932	-2.859895E-1
4/7/2025  12:39:50.864432	-2.931497E-1
4/7/2025  12:39:50.864932	-2.980317E-1
4/7/2025  12:39:50.865432	-2.960789E-1
4/7/2025  12:39:50.865932	-2.944516E-1
4/7/2025  12:39:50.866432	-2.941261E-1
4/7/2025  12:39:50.866932	-2.947771E-1
4/7/2025  12:39:50.867432	-2.911969E-1
4/7/2025  12:39:50.867932	-2.872914E-1
4/7/2025  12:39:50.868432	-2.843622E-1
4/7/2025  12:39:50.868932	-2.837112E-1
4/7/2025  12:39:50.869432	-2.807820E-1
4/7/2025  12:39:50.869932	-2.772019E-1
4/7/2025  12:39:50.870432	-2.775274E-1
4/7/2025  12:39:50.870932	-2.726454E-1
4/7/2025  12:39:50.871432	-2.690652E-1
4/7/2025  12:39:50.871932	-2.664615E-1
4/7/2025  12:39:50.872432	-2.606031E-1
4/7/2025  12:39:50.872932	-2.544193E-1
4/7/2025  12:39:50.873432	-2.479099E-1
4/7/2025  12:39:50.873932	-2.456317E-1
4/7/2025  12:39:50.874432	-2.433534E-1
4/7/2025  12:39:50.874932	-2.430279E-1
4/7/2025  12:39:50.875432	-2.365186E-1
4/7/2025  12:39:50.875932	-2.381459E-1
4/7/2025  12:39:50.876432	-2.387969E-1
4/7/2025  12:39:50.876932	-2.453062E-1
4/7/2025  12:39:50.877432	-2.456317E-1
4/7/2025  12:39:50.877932	-2.462826E-1
4/7/2025  12:39:50.878432	-2.550702E-1
4/7/2025  12:39:50.878932	-2.527919E-1
4/7/2025  12:39:50.879432	-2.583248E-1
4/7/2025  12:39:50.879932	-2.615795E-1
4/7/2025  12:39:50.880432	-2.619050E-1
4/7/2025  12:39:50.880932	-2.641832E-1
4/7/2025  12:39:50.881432	-2.703671E-1
4/7/2025  12:39:50.881932	-2.684143E-1
4/7/2025  12:39:50.882432	-2.752491E-1
4/7/2025  12:39:50.882932	-2.785038E-1
4/7/2025  12:39:50.883432	-2.827348E-1
4/7/2025  12:39:50.883932	-2.833858E-1
4/7/2025  12:39:50.884432	-2.915224E-1
4/7/2025  12:39:50.884932	-2.879423E-1
4/7/2025  12:39:50.885432	-2.856640E-1
4/7/2025  12:39:50.885932	-2.889187E-1
4/7/2025  12:39:50.886432	-2.895696E-1
4/7/2025  12:39:50.886932	-2.840367E-1
4/7/2025  12:39:50.887432	-2.866404E-1
4/7/2025  12:39:50.887932	-2.804566E-1
4/7/2025  12:39:50.888432	-2.775274E-1
4/7/2025  12:39:50.888932	-2.755746E-1
4/7/2025  12:39:50.889432	-2.706926E-1
4/7/2025  12:39:50.889932	-2.700416E-1
4/7/2025  12:39:50.890432	-2.654851E-1
4/7/2025  12:39:50.890932	-2.638578E-1
4/7/2025  12:39:50.891432	-2.602776E-1
4/7/2025  12:39:50.891932	-2.586503E-1
4/7/2025  12:39:50.892432	-2.508391E-1
4/7/2025  12:39:50.892932	-2.521410E-1
4/7/2025  12:39:50.893432	-2.479099E-1
4/7/2025  12:39:50.893932	-2.459571E-1
4/7/2025  12:39:50.894432	-2.365186E-1
4/7/2025  12:39:50.894932	-2.387969E-1
4/7/2025  12:39:50.895432	-2.335894E-1
4/7/2025  12:39:50.895932	-2.290329E-1
4/7/2025  12:39:50.896432	-2.335894E-1
4/7/2025  12:39:50.896932	-2.433534E-1
4/7/2025  12:39:50.897432	-2.394478E-1
4/7/2025  12:39:50.897932	-2.427025E-1
4/7/2025  12:39:50.898432	-2.466081E-1
4/7/2025  12:39:50.898932	-2.492118E-1
4/7/2025  12:39:50.899432	-2.576739E-1
4/7/2025  12:39:50.899932	-2.586503E-1
4/7/2025  12:39:50.900432	-2.593012E-1
4/7/2025  12:39:50.900932	-2.641832E-1
4/7/2025  12:39:50.901432	-2.654851E-1
4/7/2025  12:39:50.901932	-2.609286E-1
4/7/2025  12:39:50.902432	-2.671124E-1
4/7/2025  12:39:50.902932	-2.693907E-1
4/7/2025  12:39:50.903432	-2.794802E-1
4/7/2025  12:39:50.903932	-2.788292E-1
4/7/2025  12:39:50.904432	-2.889187E-1
4/7/2025  12:39:50.904932	-2.820839E-1
4/7/2025  12:39:50.905432	-2.885932E-1
4/7/2025  12:39:50.905932	-2.898951E-1
4/7/2025  12:39:50.906432	-2.846876E-1
4/7/2025  12:39:50.906932	-2.840367E-1
4/7/2025  12:39:50.907432	-2.859895E-1
4/7/2025  12:39:50.907932	-2.807820E-1
4/7/2025  12:39:50.908432	-2.788292E-1
4/7/2025  12:39:50.908932	-2.759000E-1
4/7/2025  12:39:50.909432	-2.716690E-1
4/7/2025  12:39:50.909932	-2.713435E-1
4/7/2025  12:39:50.910432	-2.690652E-1
4/7/2025  12:39:50.910932	-2.661360E-1
4/7/2025  12:39:50.911432	-2.651596E-1
4/7/2025  12:39:50.911932	-2.602776E-1
4/7/2025  12:39:50.912432	-2.606031E-1
4/7/2025  12:39:50.912932	-2.586503E-1
4/7/2025  12:39:50.913432	-2.518155E-1
4/7/2025  12:39:50.913932	-2.472590E-1
4/7/2025  12:39:50.914432	-2.505137E-1
4/7/2025  12:39:50.914932	-2.466081E-1
4/7/2025  12:39:50.915432	-2.365186E-1
4/7/2025  12:39:50.915932	-2.427025E-1
4/7/2025  12:39:50.916432	-2.342403E-1
4/7/2025  12:39:50.916932	-2.365186E-1
4/7/2025  12:39:50.917432	-2.368441E-1
4/7/2025  12:39:50.917932	-2.420515E-1
4/7/2025  12:39:50.918432	-2.459571E-1
4/7/2025  12:39:50.918932	-2.482354E-1
4/7/2025  12:39:50.919432	-2.524665E-1
4/7/2025  12:39:50.919932	-2.540938E-1
4/7/2025  12:39:50.920432	-2.583248E-1
4/7/2025  12:39:50.920932	-2.602776E-1
4/7/2025  12:39:50.921432	-2.602776E-1
4/7/2025  12:39:50.921932	-2.599522E-1
4/7/2025  12:39:50.922432	-2.684143E-1
4/7/2025  12:39:50.922932	-2.706926E-1
4/7/2025  12:39:50.923432	-2.765510E-1
4/7/2025  12:39:50.923932	-2.755746E-1
4/7/2025  12:39:50.924432	-2.775274E-1
4/7/2025  12:39:50.924932	-2.830603E-1
4/7/2025  12:39:50.925432	-2.866404E-1
4/7/2025  12:39:50.925932	-2.898951E-1
4/7/2025  12:39:50.926432	-2.846876E-1
4/7/2025  12:39:50.926932	-2.846876E-1
4/7/2025  12:39:50.927432	-2.820839E-1
4/7/2025  12:39:50.927932	-2.811075E-1
4/7/2025  12:39:50.928432	-2.811075E-1
4/7/2025  12:39:50.928932	-2.759000E-1
4/7/2025  12:39:50.929432	-2.739472E-1
4/7/2025  12:39:50.929932	-2.732963E-1
4/7/2025  12:39:50.930432	-2.677634E-1
4/7/2025  12:39:50.930932	-2.651596E-1
4/7/2025  12:39:50.931432	-2.599522E-1
4/7/2025  12:39:50.931932	-2.560466E-1
4/7/2025  12:39:50.932432	-2.553957E-1
4/7/2025  12:39:50.932932	-2.583248E-1
4/7/2025  12:39:50.933432	-2.498627E-1
4/7/2025  12:39:50.933932	-2.485609E-1
4/7/2025  12:39:50.934432	-2.453062E-1
4/7/2025  12:39:50.934932	-2.459571E-1
4/7/2025  12:39:50.935432	-2.387969E-1
4/7/2025  12:39:50.935932	-2.342403E-1
4/7/2025  12:39:50.936432	-2.368441E-1
4/7/2025  12:39:50.936932	-2.368441E-1
4/7/2025  12:39:50.937432	-2.427025E-1
4/7/2025  12:39:50.937932	-2.456317E-1
4/7/2025  12:39:50.938432	-2.495373E-1
4/7/2025  12:39:50.938932	-2.553957E-1
4/7/2025  12:39:50.939432	-2.586503E-1
4/7/2025  12:39:50.939932	-2.606031E-1
4/7/2025  12:39:50.940432	-2.622304E-1
4/7/2025  12:39:50.940932	-2.615795E-1
4/7/2025  12:39:50.941432	-2.654851E-1
4/7/2025  12:39:50.941932	-2.661360E-1
4/7/2025  12:39:50.942432	-2.690652E-1
4/7/2025  12:39:50.942932	-2.716690E-1
4/7/2025  12:39:50.943432	-2.824094E-1
4/7/2025  12:39:50.943932	-2.785038E-1
4/7/2025  12:39:50.944432	-2.908715E-1
4/7/2025  12:39:50.944932	-2.918479E-1
4/7/2025  12:39:50.945432	-2.846876E-1
4/7/2025  12:39:50.945932	-2.846876E-1
4/7/2025  12:39:50.946432	-2.889187E-1
4/7/2025  12:39:50.946932	-2.921733E-1
4/7/2025  12:39:50.947432	-2.830603E-1
4/7/2025  12:39:50.947932	-2.788292E-1
4/7/2025  12:39:50.948432	-2.778528E-1
4/7/2025  12:39:50.948932	-2.749236E-1
4/7/2025  12:39:50.949432	-2.703671E-1
4/7/2025  12:39:50.949932	-2.664615E-1
4/7/2025  12:39:50.950432	-2.615795E-1
4/7/2025  12:39:50.950932	-2.593012E-1
4/7/2025  12:39:50.951432	-2.563720E-1
4/7/2025  12:39:50.951932	-2.570230E-1
4/7/2025  12:39:50.952432	-2.560466E-1
4/7/2025  12:39:50.952932	-2.479099E-1
4/7/2025  12:39:50.953432	-2.475845E-1
4/7/2025  12:39:50.953932	-2.423770E-1
4/7/2025  12:39:50.954432	-2.400987E-1
4/7/2025  12:39:50.954932	-2.319621E-1
4/7/2025  12:39:50.955432	-2.319621E-1
4/7/2025  12:39:50.955932	-2.397733E-1
4/7/2025  12:39:50.956432	-2.410751E-1
4/7/2025  12:39:50.956932	-2.348913E-1
4/7/2025  12:39:50.957432	-2.427025E-1
4/7/2025  12:39:50.957932	-2.417261E-1
4/7/2025  12:39:50.958432	-2.505137E-1
4/7/2025  12:39:50.958932	-2.544193E-1
4/7/2025  12:39:50.959432	-2.544193E-1
4/7/2025  12:39:50.959932	-2.576739E-1
4/7/2025  12:39:50.960432	-2.579994E-1
4/7/2025  12:39:50.960932	-2.632068E-1
4/7/2025  12:39:50.961432	-2.658106E-1
4/7/2025  12:39:50.961932	-2.726454E-1
4/7/2025  12:39:50.962432	-2.684143E-1
4/7/2025  12:39:50.962932	-2.759000E-1
4/7/2025  12:39:50.963432	-2.853386E-1
4/7/2025  12:39:50.963932	-2.837112E-1
4/7/2025  12:39:50.964432	-2.837112E-1
4/7/2025  12:39:50.964932	-2.811075E-1
4/7/2025  12:39:50.965432	-2.911969E-1
4/7/2025  12:39:50.965932	-2.921733E-1
4/7/2025  12:39:50.966432	-2.889187E-1
4/7/2025  12:39:50.966932	-2.889187E-1
4/7/2025  12:39:50.967432	-2.869659E-1
4/7/2025  12:39:50.967932	-2.846876E-1
4/7/2025  12:39:50.968432	-2.807820E-1
4/7/2025  12:39:50.968932	-2.765510E-1
4/7/2025  12:39:50.969432	-2.719944E-1
4/7/2025  12:39:50.969932	-2.693907E-1
4/7/2025  12:39:50.970432	-2.654851E-1
4/7/2025  12:39:50.970932	-2.664615E-1
4/7/2025  12:39:50.971432	-2.677634E-1
4/7/2025  12:39:50.971932	-2.658106E-1
4/7/2025  12:39:50.972432	-2.579994E-1
4/7/2025  12:39:50.972932	-2.570230E-1
4/7/2025  12:39:50.973432	-2.563720E-1
4/7/2025  12:39:50.973932	-2.475845E-1
4/7/2025  12:39:50.974432	-2.420515E-1
4/7/2025  12:39:50.974932	-2.381459E-1
4/7/2025  12:39:50.975432	-2.326130E-1
4/7/2025  12:39:50.975932	-2.365186E-1
4/7/2025  12:39:50.976432	-2.329385E-1
4/7/2025  12:39:50.976932	-2.469335E-1
4/7/2025  12:39:50.977432	-2.495373E-1
4/7/2025  12:39:50.977932	-2.563720E-1
4/7/2025  12:39:50.978432	-2.602776E-1
4/7/2025  12:39:50.978932	-2.648342E-1
4/7/2025  12:39:50.979432	-2.648342E-1
4/7/2025  12:39:50.979932	-2.690652E-1
4/7/2025  12:39:50.980432	-2.703671E-1
4/7/2025  12:39:50.980932	-2.716690E-1
4/7/2025  12:39:50.981432	-2.732963E-1
4/7/2025  12:39:50.981932	-2.742727E-1
4/7/2025  12:39:50.982432	-2.791547E-1
4/7/2025  12:39:50.982932	-2.885932E-1
4/7/2025  12:39:50.983432	-2.801311E-1
4/7/2025  12:39:50.983932	-2.951025E-1
4/7/2025  12:39:50.984432	-2.960789E-1
4/7/2025  12:39:50.984932	-2.954280E-1
4/7/2025  12:39:50.985432	-2.957535E-1
4/7/2025  12:39:50.985932	-2.964044E-1
4/7/2025  12:39:50.986432	-2.898951E-1
4/7/2025  12:39:50.986932	-2.892441E-1
4/7/2025  12:39:50.987432	-2.911969E-1
4/7/2025  12:39:50.987932	-2.876168E-1
4/7/2025  12:39:50.988432	-2.846876E-1
4/7/2025  12:39:50.988932	-2.807820E-1
4/7/2025  12:39:50.989432	-2.775274E-1
4/7/2025  12:39:50.989932	-2.732963E-1
4/7/2025  12:39:50.990432	-2.684143E-1
4/7/2025  12:39:50.990932	-2.684143E-1
4/7/2025  12:39:50.991432	-2.677634E-1
4/7/2025  12:39:50.991932	-2.645087E-1
4/7/2025  12:39:50.992432	-2.606031E-1
4/7/2025  12:39:50.992932	-2.560466E-1
4/7/2025  12:39:50.993432	-2.498627E-1
4/7/2025  12:39:50.993932	-2.466081E-1
4/7/2025  12:39:50.994432	-2.361931E-1
4/7/2025  12:39:50.994932	-2.335894E-1
4/7/2025  12:39:50.995432	-2.335894E-1
4/7/2025  12:39:50.995932	-2.427025E-1
4/7/2025  12:39:50.996432	-2.492118E-1
4/7/2025  12:39:50.996932	-2.427025E-1
4/7/2025  12:39:50.997432	-2.469335E-1
4/7/2025  12:39:50.997932	-2.495373E-1
4/7/2025  12:39:50.998432	-2.443298E-1
4/7/2025  12:39:50.998932	-2.540938E-1
4/7/2025  12:39:50.999432	-2.579994E-1
4/7/2025  12:39:50.999932	-2.579994E-1
4/7/2025  12:39:51.000432	-2.641832E-1
4/7/2025  12:39:51.000932	-2.693907E-1
4/7/2025  12:39:51.001432	-2.723199E-1
4/7/2025  12:39:51.001932	-2.752491E-1
4/7/2025  12:39:51.002432	-2.837112E-1
4/7/2025  12:39:51.002932	-2.807820E-1
4/7/2025  12:39:51.003432	-2.859895E-1
4/7/2025  12:39:51.003932	-2.876168E-1
4/7/2025  12:39:51.004432	-2.853386E-1
4/7/2025  12:39:51.004932	-2.951025E-1
4/7/2025  12:39:51.005432	-2.957535E-1
4/7/2025  12:39:51.005932	-2.938007E-1
4/7/2025  12:39:51.006432	-2.957535E-1
4/7/2025  12:39:51.006932	-2.980317E-1
4/7/2025  12:39:51.007432	-2.924988E-1
4/7/2025  12:39:51.007932	-2.869659E-1
4/7/2025  12:39:51.008432	-2.804566E-1
4/7/2025  12:39:51.008932	-2.798056E-1
4/7/2025  12:39:51.009432	-2.798056E-1
4/7/2025  12:39:51.009932	-2.768764E-1
4/7/2025  12:39:51.010432	-2.732963E-1
4/7/2025  12:39:51.010932	-2.732963E-1
4/7/2025  12:39:51.011432	-2.693907E-1
4/7/2025  12:39:51.011932	-2.667870E-1
4/7/2025  12:39:51.012432	-2.638578E-1
4/7/2025  12:39:51.012932	-2.573484E-1
4/7/2025  12:39:51.013432	-2.553957E-1
4/7/2025  12:39:51.013932	-2.534429E-1
4/7/2025  12:39:51.014432	-2.462826E-1
4/7/2025  12:39:51.014932	-2.505137E-1
4/7/2025  12:39:51.015432	-2.414006E-1
4/7/2025  12:39:51.015932	-2.521410E-1
4/7/2025  12:39:51.016432	-2.505137E-1
4/7/2025  12:39:51.016932	-2.550702E-1
4/7/2025  12:39:51.017432	-2.527919E-1
4/7/2025  12:39:51.017932	-2.547447E-1
4/7/2025  12:39:51.018432	-2.596267E-1
4/7/2025  12:39:51.018932	-2.628814E-1
4/7/2025  12:39:51.019432	-2.677634E-1
4/7/2025  12:39:51.019932	-2.706926E-1
4/7/2025  12:39:51.020432	-2.723199E-1
4/7/2025  12:39:51.020932	-2.765510E-1
4/7/2025  12:39:51.021432	-2.788292E-1
4/7/2025  12:39:51.021932	-2.755746E-1
4/7/2025  12:39:51.022432	-2.814330E-1
4/7/2025  12:39:51.022932	-2.898951E-1
4/7/2025  12:39:51.023432	-2.967299E-1
4/7/2025  12:39:51.023932	-3.032392E-1
4/7/2025  12:39:51.024432	-3.019373E-1
4/7/2025  12:39:51.024932	-3.045411E-1
4/7/2025  12:39:51.025432	-2.986827E-1
4/7/2025  12:39:51.025932	-3.048665E-1
4/7/2025  12:39:51.026432	-3.006355E-1
4/7/2025  12:39:51.026932	-2.970553E-1
4/7/2025  12:39:51.027432	-2.954280E-1
4/7/2025  12:39:51.027932	-2.964044E-1
4/7/2025  12:39:51.028432	-2.938007E-1
4/7/2025  12:39:51.028932	-2.931497E-1
4/7/2025  12:39:51.029432	-2.879423E-1
4/7/2025  12:39:51.029932	-2.853386E-1
4/7/2025  12:39:51.030432	-2.837112E-1
4/7/2025  12:39:51.030932	-2.781783E-1
4/7/2025  12:39:51.031432	-2.755746E-1
4/7/2025  12:39:51.031932	-2.729708E-1
4/7/2025  12:39:51.032432	-2.700416E-1
4/7/2025  12:39:51.032932	-2.654851E-1
4/7/2025  12:39:51.033432	-2.654851E-1
4/7/2025  12:39:51.033932	-2.628814E-1
4/7/2025  12:39:51.034432	-2.547447E-1
4/7/2025  12:39:51.034932	-2.492118E-1
4/7/2025  12:39:51.035432	-2.505137E-1
4/7/2025  12:39:51.035932	-2.518155E-1
4/7/2025  12:39:51.036432	-2.505137E-1
4/7/2025  12:39:51.036932	-2.472590E-1
4/7/2025  12:39:51.037432	-2.566975E-1
4/7/2025  12:39:51.037932	-2.599522E-1
4/7/2025  12:39:51.038432	-2.661360E-1
4/7/2025  12:39:51.038932	-2.684143E-1
4/7/2025  12:39:51.039432	-2.713435E-1
4/7/2025  12:39:51.039932	-2.749236E-1
4/7/2025  12:39:51.040432	-2.759000E-1
4/7/2025  12:39:51.040932	-2.755746E-1
4/7/2025  12:39:51.041432	-2.804566E-1
4/7/2025  12:39:51.041932	-2.853386E-1
4/7/2025  12:39:51.042432	-2.804566E-1
4/7/2025  12:39:51.042932	-2.957535E-1
4/7/2025  12:39:51.043432	-2.938007E-1
4/7/2025  12:39:51.043932	-2.973808E-1
4/7/2025  12:39:51.044432	-3.012864E-1
4/7/2025  12:39:51.044932	-3.012864E-1
4/7/2025  12:39:51.045432	-3.068193E-1
4/7/2025  12:39:51.045932	-3.022628E-1
4/7/2025  12:39:51.046432	-2.951025E-1
4/7/2025  12:39:51.046932	-2.993336E-1
4/7/2025  12:39:51.047432	-2.990081E-1
4/7/2025  12:39:51.047932	-2.921733E-1
4/7/2025  12:39:51.048432	-2.944516E-1
4/7/2025  12:39:51.048932	-2.908715E-1
4/7/2025  12:39:51.049432	-2.866404E-1
4/7/2025  12:39:51.049932	-2.814330E-1
4/7/2025  12:39:51.050432	-2.798056E-1
4/7/2025  12:39:51.050932	-2.759000E-1
4/7/2025  12:39:51.051432	-2.768764E-1
4/7/2025  12:39:51.051932	-2.739472E-1
4/7/2025  12:39:51.052432	-2.658106E-1
4/7/2025  12:39:51.052932	-2.658106E-1
4/7/2025  12:39:51.053432	-2.632068E-1
4/7/2025  12:39:51.053932	-2.596267E-1
4/7/2025  12:39:51.054432	-2.570230E-1
4/7/2025  12:39:51.054932	-2.628814E-1
4/7/2025  12:39:51.055432	-2.553957E-1
4/7/2025  12:39:51.055932	-2.560466E-1
4/7/2025  12:39:51.056432	-2.488863E-1
4/7/2025  12:39:51.056932	-2.472590E-1
4/7/2025  12:39:51.057432	-2.622304E-1
4/7/2025  12:39:51.057932	-2.648342E-1
4/7/2025  12:39:51.058432	-2.710180E-1
4/7/2025  12:39:51.058932	-2.716690E-1
4/7/2025  12:39:51.059432	-2.762255E-1
4/7/2025  12:39:51.059932	-2.781783E-1
4/7/2025  12:39:51.060432	-2.804566E-1
4/7/2025  12:39:51.060932	-2.811075E-1
4/7/2025  12:39:51.061432	-2.843622E-1
4/7/2025  12:39:51.061932	-2.872914E-1
4/7/2025  12:39:51.062432	-2.908715E-1
4/7/2025  12:39:51.062932	-2.902205E-1
4/7/2025  12:39:51.063432	-3.006355E-1
4/7/2025  12:39:51.063932	-2.970553E-1
4/7/2025  12:39:51.064432	-3.071448E-1
4/7/2025  12:39:51.064932	-3.035647E-1
4/7/2025  12:39:51.065432	-3.012864E-1
4/7/2025  12:39:51.065932	-3.022628E-1
4/7/2025  12:39:51.066432	-3.012864E-1
4/7/2025  12:39:51.066932	-3.038901E-1
4/7/2025  12:39:51.067432	-2.990081E-1
4/7/2025  12:39:51.067932	-2.977063E-1
4/7/2025  12:39:51.068432	-2.947771E-1
4/7/2025  12:39:51.068932	-2.921733E-1
4/7/2025  12:39:51.069432	-2.863150E-1
4/7/2025  12:39:51.069932	-2.856640E-1
4/7/2025  12:39:51.070432	-2.807820E-1
4/7/2025  12:39:51.070932	-2.807820E-1
4/7/2025  12:39:51.071432	-2.765510E-1
4/7/2025  12:39:51.071932	-2.752491E-1
4/7/2025  12:39:51.072432	-2.762255E-1
4/7/2025  12:39:51.072932	-2.700416E-1
4/7/2025  12:39:51.073432	-2.648342E-1
4/7/2025  12:39:51.073932	-2.635323E-1
4/7/2025  12:39:51.074432	-2.602776E-1
4/7/2025  12:39:51.074932	-2.531174E-1
4/7/2025  12:39:51.075432	-2.511646E-1
4/7/2025  12:39:51.075932	-2.508391E-1
4/7/2025  12:39:51.076432	-2.553957E-1
4/7/2025  12:39:51.076932	-2.593012E-1
4/7/2025  12:39:51.077432	-2.651596E-1
4/7/2025  12:39:51.077932	-2.674379E-1
4/7/2025  12:39:51.078432	-2.719944E-1
4/7/2025  12:39:51.078932	-2.745982E-1
4/7/2025  12:39:51.079432	-2.759000E-1
4/7/2025  12:39:51.079932	-2.768764E-1
4/7/2025  12:39:51.080432	-2.811075E-1
4/7/2025  12:39:51.080932	-2.850131E-1
4/7/2025  12:39:51.081432	-2.895696E-1
4/7/2025  12:39:51.081932	-2.892441E-1
4/7/2025  12:39:51.082432	-2.876168E-1
4/7/2025  12:39:51.082932	-3.025883E-1
4/7/2025  12:39:51.083432	-2.967299E-1
4/7/2025  12:39:51.083932	-3.045411E-1
4/7/2025  12:39:51.084432	-3.061684E-1
4/7/2025  12:39:51.084932	-3.055175E-1
4/7/2025  12:39:51.085432	-3.042156E-1
4/7/2025  12:39:51.085932	-3.029137E-1
4/7/2025  12:39:51.086432	-3.087721E-1
4/7/2025  12:39:51.086932	-3.019373E-1
4/7/2025  12:39:51.087432	-3.016119E-1
4/7/2025  12:39:51.087932	-2.970553E-1
4/7/2025  12:39:51.088432	-2.934752E-1
4/7/2025  12:39:51.088932	-2.879423E-1
4/7/2025  12:39:51.089432	-2.830603E-1
4/7/2025  12:39:51.089932	-2.833858E-1
4/7/2025  12:39:51.090432	-2.794802E-1
4/7/2025  12:39:51.090932	-2.745982E-1
4/7/2025  12:39:51.091432	-2.732963E-1
4/7/2025  12:39:51.091932	-2.719944E-1
4/7/2025  12:39:51.092432	-2.700416E-1
4/7/2025  12:39:51.092932	-2.664615E-1
4/7/2025  12:39:51.093432	-2.638578E-1
4/7/2025  12:39:51.093932	-2.560466E-1
4/7/2025  12:39:51.094432	-2.534429E-1
4/7/2025  12:39:51.094932	-2.619050E-1
4/7/2025  12:39:51.095432	-2.563720E-1
4/7/2025  12:39:51.095932	-2.570230E-1
4/7/2025  12:39:51.096432	-2.596267E-1
4/7/2025  12:39:51.096932	-2.706926E-1
4/7/2025  12:39:51.097432	-2.619050E-1
4/7/2025  12:39:51.097932	-2.677634E-1
4/7/2025  12:39:51.098432	-2.713435E-1
4/7/2025  12:39:51.098932	-2.765510E-1
4/7/2025  12:39:51.099432	-2.775274E-1
4/7/2025  12:39:51.099932	-2.791547E-1
4/7/2025  12:39:51.100432	-2.817584E-1
4/7/2025  12:39:51.100932	-2.830603E-1
4/7/2025  12:39:51.101432	-2.879423E-1
4/7/2025  12:39:51.101932	-2.905460E-1
4/7/2025  12:39:51.102432	-2.924988E-1
4/7/2025  12:39:51.102932	-3.029137E-1
4/7/2025  12:39:51.103432	-2.977063E-1
4/7/2025  12:39:51.103932	-2.983572E-1
4/7/2025  12:39:51.104432	-3.025883E-1
4/7/2025  12:39:51.104932	-3.038901E-1
4/7/2025  12:39:51.105432	-3.042156E-1
4/7/2025  12:39:51.105932	-3.064939E-1
4/7/2025  12:39:51.106432	-3.081212E-1
4/7/2025  12:39:51.106932	-3.071448E-1
4/7/2025  12:39:51.107432	-3.006355E-1
4/7/2025  12:39:51.107932	-2.970553E-1
4/7/2025  12:39:51.108432	-2.951025E-1
4/7/2025  12:39:51.108932	-2.895696E-1
4/7/2025  12:39:51.109432	-2.843622E-1
4/7/2025  12:39:51.109932	-2.814330E-1
4/7/2025  12:39:51.110432	-2.778528E-1
4/7/2025  12:39:51.110932	-2.785038E-1
4/7/2025  12:39:51.111432	-2.732963E-1
4/7/2025  12:39:51.111932	-2.762255E-1
4/7/2025  12:39:51.112432	-2.719944E-1
4/7/2025  12:39:51.112932	-2.671124E-1
4/7/2025  12:39:51.113432	-2.609286E-1
4/7/2025  12:39:51.113932	-2.609286E-1
4/7/2025  12:39:51.114432	-2.521410E-1
4/7/2025  12:39:51.114932	-2.488863E-1
4/7/2025  12:39:51.115432	-2.508391E-1
4/7/2025  12:39:51.115932	-2.456317E-1
4/7/2025  12:39:51.116432	-2.511646E-1
4/7/2025  12:39:51.116932	-2.492118E-1
4/7/2025  12:39:51.117432	-2.579994E-1
4/7/2025  12:39:51.117932	-2.576739E-1
4/7/2025  12:39:51.118432	-2.645087E-1
4/7/2025  12:39:51.118932	-2.586503E-1
4/7/2025  12:39:51.119432	-2.635323E-1
4/7/2025  12:39:51.119932	-2.648342E-1
4/7/2025  12:39:51.120432	-2.713435E-1
4/7/2025  12:39:51.120932	-2.713435E-1
4/7/2025  12:39:51.121432	-2.781783E-1
4/7/2025  12:39:51.121932	-2.840367E-1
4/7/2025  12:39:51.122432	-2.788292E-1
4/7/2025  12:39:51.122932	-2.863150E-1
4/7/2025  12:39:51.123432	-2.895696E-1
4/7/2025  12:39:51.123932	-2.902205E-1
4/7/2025  12:39:51.124432	-2.921733E-1
4/7/2025  12:39:51.124932	-2.954280E-1
4/7/2025  12:39:51.125432	-2.951025E-1
4/7/2025  12:39:51.125932	-2.957535E-1
4/7/2025  12:39:51.126432	-2.941261E-1
4/7/2025  12:39:51.126932	-2.990081E-1
4/7/2025  12:39:51.127432	-2.934752E-1
4/7/2025  12:39:51.127932	-2.882678E-1
4/7/2025  12:39:51.128432	-2.879423E-1
4/7/2025  12:39:51.128932	-2.804566E-1
4/7/2025  12:39:51.129432	-2.765510E-1
4/7/2025  12:39:51.129932	-2.765510E-1
4/7/2025  12:39:51.130432	-2.768764E-1
4/7/2025  12:39:51.130932	-2.742727E-1
4/7/2025  12:39:51.131432	-2.700416E-1
4/7/2025  12:39:51.131932	-2.710180E-1
4/7/2025  12:39:51.132432	-2.638578E-1
4/7/2025  12:39:51.132932	-2.599522E-1
4/7/2025  12:39:51.133432	-2.544193E-1
4/7/2025  12:39:51.133932	-2.475845E-1
4/7/2025  12:39:51.134432	-2.472590E-1
4/7/2025  12:39:51.134932	-2.433534E-1
4/7/2025  12:39:51.135432	-2.466081E-1
4/7/2025  12:39:51.135932	-2.433534E-1
4/7/2025  12:39:51.136432	-2.417261E-1
4/7/2025  12:39:51.136932	-2.495373E-1
4/7/2025  12:39:51.137432	-2.485609E-1
4/7/2025  12:39:51.137932	-2.505137E-1
4/7/2025  12:39:51.138432	-2.521410E-1
4/7/2025  12:39:51.138932	-2.557211E-1
4/7/2025  12:39:51.139432	-2.602776E-1
4/7/2025  12:39:51.139932	-2.654851E-1
4/7/2025  12:39:51.140432	-2.638578E-1
4/7/2025  12:39:51.140932	-2.671124E-1
4/7/2025  12:39:51.141432	-2.706926E-1
4/7/2025  12:39:51.141932	-2.801311E-1
4/7/2025  12:39:51.142432	-2.697162E-1
4/7/2025  12:39:51.142932	-2.697162E-1
4/7/2025  12:39:51.143432	-2.706926E-1
4/7/2025  12:39:51.143932	-2.895696E-1
4/7/2025  12:39:51.144432	-2.918479E-1
4/7/2025  12:39:51.144932	-3.003100E-1
4/7/2025  12:39:51.145432	-2.954280E-1
4/7/2025  12:39:51.145932	-2.941261E-1
4/7/2025  12:39:51.146432	-2.898951E-1
4/7/2025  12:39:51.146932	-2.872914E-1
4/7/2025  12:39:51.147432	-2.840367E-1
4/7/2025  12:39:51.147932	-2.788292E-1
4/7/2025  12:39:51.148432	-2.755746E-1
4/7/2025  12:39:51.148932	-2.713435E-1
4/7/2025  12:39:51.149432	-2.687398E-1
4/7/2025  12:39:51.149932	-2.654851E-1
4/7/2025  12:39:51.150432	-2.622304E-1
4/7/2025  12:39:51.150932	-2.586503E-1
4/7/2025  12:39:51.151432	-2.563720E-1
4/7/2025  12:39:51.151932	-2.531174E-1
4/7/2025  12:39:51.152432	-2.462826E-1
4/7/2025  12:39:51.152932	-2.417261E-1
4/7/2025  12:39:51.153432	-2.355422E-1
4/7/2025  12:39:51.153932	-2.332639E-1
4/7/2025  12:39:51.154432	-2.228490E-1
4/7/2025  12:39:51.154932	-2.225236E-1
4/7/2025  12:39:51.155432	-2.241509E-1
4/7/2025  12:39:51.155932	-2.257782E-1
4/7/2025  12:39:51.156432	-2.173161E-1
4/7/2025  12:39:51.156932	-2.212217E-1
4/7/2025  12:39:51.157432	-2.205708E-1
4/7/2025  12:39:51.157932	-2.182925E-1
4/7/2025  12:39:51.158432	-2.218726E-1
4/7/2025  12:39:51.158932	-2.235000E-1
4/7/2025  12:39:51.159432	-2.274055E-1
4/7/2025  12:39:51.159932	-2.313111E-1
4/7/2025  12:39:51.160432	-2.332639E-1
4/7/2025  12:39:51.160932	-2.345658E-1
4/7/2025  12:39:51.161432	-2.400987E-1
4/7/2025  12:39:51.161932	-2.345658E-1
4/7/2025  12:39:51.162432	-2.410751E-1
4/7/2025  12:39:51.162932	-2.384714E-1
4/7/2025  12:39:51.163432	-2.479099E-1
4/7/2025  12:39:51.163932	-2.495373E-1
4/7/2025  12:39:51.164432	-2.534429E-1
4/7/2025  12:39:51.164932	-2.553957E-1
4/7/2025  12:39:51.165432	-2.514901E-1
4/7/2025  12:39:51.165932	-2.573484E-1
4/7/2025  12:39:51.166432	-2.534429E-1
4/7/2025  12:39:51.166932	-2.492118E-1
4/7/2025  12:39:51.167432	-2.514901E-1
4/7/2025  12:39:51.167932	-2.446553E-1
4/7/2025  12:39:51.168432	-2.423770E-1
4/7/2025  12:39:51.168932	-2.319621E-1
4/7/2025  12:39:51.169432	-2.345658E-1
4/7/2025  12:39:51.169932	-2.316366E-1
4/7/2025  12:39:51.170432	-2.261037E-1
4/7/2025  12:39:51.170932	-2.238254E-1
4/7/2025  12:39:51.171432	-2.208962E-1
4/7/2025  12:39:51.171932	-2.199198E-1
4/7/2025  12:39:51.172432	-2.182925E-1
4/7/2025  12:39:51.172932	-2.117832E-1
4/7/2025  12:39:51.173432	-2.029956E-1
4/7/2025  12:39:51.173932	-1.938825E-1
4/7/2025  12:39:51.174432	-2.042974E-1
4/7/2025  12:39:51.174932	-1.857459E-1
4/7/2025  12:39:51.175432	-2.036465E-1
4/7/2025  12:39:51.175932	-1.994154E-1
4/7/2025  12:39:51.176432	-2.111322E-1
4/7/2025  12:39:51.176932	-2.117832E-1
4/7/2025  12:39:51.177432	-2.085285E-1
4/7/2025  12:39:51.177932	-2.108068E-1
4/7/2025  12:39:51.178432	-2.104813E-1
4/7/2025  12:39:51.178932	-2.147124E-1
4/7/2025  12:39:51.179432	-2.173161E-1
4/7/2025  12:39:51.179932	-2.238254E-1
4/7/2025  12:39:51.180432	-2.261037E-1
4/7/2025  12:39:51.180932	-2.290329E-1
4/7/2025  12:39:51.181432	-2.290329E-1
4/7/2025  12:39:51.181932	-2.358677E-1
4/7/2025  12:39:51.182432	-2.410751E-1
4/7/2025  12:39:51.182932	-2.400987E-1
4/7/2025  12:39:51.183432	-2.391223E-1
4/7/2025  12:39:51.183932	-2.511646E-1
4/7/2025  12:39:51.184432	-2.583248E-1
4/7/2025  12:39:51.184932	-2.573484E-1
4/7/2025  12:39:51.185432	-2.661360E-1
4/7/2025  12:39:51.185932	-2.713435E-1
4/7/2025  12:39:51.186432	-2.745982E-1
4/7/2025  12:39:51.186932	-2.661360E-1
4/7/2025  12:39:51.187432	-2.677634E-1
4/7/2025  12:39:51.187932	-2.635323E-1
4/7/2025  12:39:51.188432	-2.593012E-1
4/7/2025  12:39:51.188932	-2.602776E-1
4/7/2025  12:39:51.189432	-2.586503E-1
4/7/2025  12:39:51.189932	-2.579994E-1
4/7/2025  12:39:51.190432	-2.606031E-1
4/7/2025  12:39:51.190932	-2.547447E-1
4/7/2025  12:39:51.191432	-2.534429E-1
4/7/2025  12:39:51.191932	-2.505137E-1
4/7/2025  12:39:51.192432	-2.485609E-1
4/7/2025  12:39:51.192932	-2.466081E-1
4/7/2025  12:39:51.193432	-2.391223E-1
4/7/2025  12:39:51.193932	-2.277310E-1
4/7/2025  12:39:51.194432	-2.365186E-1
4/7/2025  12:39:51.194932	-2.384714E-1
4/7/2025  12:39:51.195432	-2.368441E-1
4/7/2025  12:39:51.195932	-2.290329E-1
4/7/2025  12:39:51.196432	-2.404242E-1
4/7/2025  12:39:51.196932	-2.361931E-1
4/7/2025  12:39:51.197432	-2.410751E-1
4/7/2025  12:39:51.197932	-2.456317E-1
4/7/2025  12:39:51.198432	-2.505137E-1
4/7/2025  12:39:51.198932	-2.521410E-1
4/7/2025  12:39:51.199432	-2.579994E-1
4/7/2025  12:39:51.199932	-2.599522E-1
4/7/2025  12:39:51.200432	-2.658106E-1
4/7/2025  12:39:51.200932	-2.697162E-1
4/7/2025  12:39:51.201432	-2.716690E-1
4/7/2025  12:39:51.201932	-2.837112E-1
4/7/2025  12:39:51.202432	-2.778528E-1
4/7/2025  12:39:51.202932	-2.892441E-1
4/7/2025  12:39:51.203432	-2.843622E-1
4/7/2025  12:39:51.203932	-2.941261E-1
4/7/2025  12:39:51.204432	-2.980317E-1
4/7/2025  12:39:51.204932	-3.016119E-1
4/7/2025  12:39:51.205432	-2.996591E-1
4/7/2025  12:39:51.205932	-3.077957E-1
4/7/2025  12:39:51.206432	-3.003100E-1
4/7/2025  12:39:51.206932	-3.048665E-1
4/7/2025  12:39:51.207432	-2.990081E-1
4/7/2025  12:39:51.207932	-2.964044E-1
4/7/2025  12:39:51.208432	-2.938007E-1
4/7/2025  12:39:51.208932	-2.902205E-1
4/7/2025  12:39:51.209432	-2.905460E-1
4/7/2025  12:39:51.209932	-2.895696E-1
4/7/2025  12:39:51.210432	-2.889187E-1
4/7/2025  12:39:51.210932	-2.817584E-1
4/7/2025  12:39:51.211432	-2.814330E-1
4/7/2025  12:39:51.211932	-2.798056E-1
4/7/2025  12:39:51.212432	-2.726454E-1
4/7/2025  12:39:51.212932	-2.713435E-1
4/7/2025  12:39:51.213432	-2.674379E-1
4/7/2025  12:39:51.213932	-2.687398E-1
4/7/2025  12:39:51.214432	-2.654851E-1
4/7/2025  12:39:51.214932	-2.593012E-1
4/7/2025  12:39:51.215432	-2.570230E-1
4/7/2025  12:39:51.215932	-2.593012E-1
4/7/2025  12:39:51.216432	-2.625559E-1
4/7/2025  12:39:51.216932	-2.560466E-1
4/7/2025  12:39:51.217432	-2.615795E-1
4/7/2025  12:39:51.217932	-2.736218E-1
4/7/2025  12:39:51.218432	-2.752491E-1
4/7/2025  12:39:51.218932	-2.817584E-1
4/7/2025  12:39:51.219432	-2.833858E-1
4/7/2025  12:39:51.219932	-2.885932E-1
4/7/2025  12:39:51.220432	-2.911969E-1
4/7/2025  12:39:51.220932	-2.941261E-1
4/7/2025  12:39:51.221432	-2.941261E-1
4/7/2025  12:39:51.221932	-2.990081E-1
4/7/2025  12:39:51.222432	-2.931497E-1
4/7/2025  12:39:51.222932	-3.003100E-1
4/7/2025  12:39:51.223432	-3.090976E-1
4/7/2025  12:39:51.223932	-3.064939E-1
4/7/2025  12:39:51.224432	-3.162579E-1
4/7/2025  12:39:51.224932	-3.146305E-1
4/7/2025  12:39:51.225432	-3.201635E-1
4/7/2025  12:39:51.225932	-3.152815E-1
4/7/2025  12:39:51.226432	-3.139796E-1
4/7/2025  12:39:51.226932	-3.103995E-1
4/7/2025  12:39:51.227432	-3.081212E-1
4/7/2025  12:39:51.227932	-3.051920E-1
4/7/2025  12:39:51.228432	-3.032392E-1
4/7/2025  12:39:51.228932	-2.983572E-1
4/7/2025  12:39:51.229432	-2.967299E-1
4/7/2025  12:39:51.229932	-2.954280E-1
4/7/2025  12:39:51.230432	-2.924988E-1
4/7/2025  12:39:51.230932	-2.885932E-1
4/7/2025  12:39:51.231432	-2.830603E-1
4/7/2025  12:39:51.231932	-2.794802E-1
4/7/2025  12:39:51.232432	-2.817584E-1
4/7/2025  12:39:51.232932	-2.775274E-1
4/7/2025  12:39:51.233432	-2.742727E-1
4/7/2025  12:39:51.233932	-2.713435E-1
4/7/2025  12:39:51.234432	-2.732963E-1
4/7/2025  12:39:51.234932	-2.677634E-1
4/7/2025  12:39:51.235432	-2.612540E-1
4/7/2025  12:39:51.235932	-2.677634E-1
4/7/2025  12:39:51.236432	-2.589758E-1
4/7/2025  12:39:51.236932	-2.674379E-1
4/7/2025  12:39:51.237432	-2.667870E-1
4/7/2025  12:39:51.237932	-2.729708E-1
4/7/2025  12:39:51.238432	-2.749236E-1
4/7/2025  12:39:51.238932	-2.820839E-1
4/7/2025  12:39:51.239432	-2.817584E-1
4/7/2025  12:39:51.239932	-2.866404E-1
4/7/2025  12:39:51.240432	-2.889187E-1
4/7/2025  12:39:51.240932	-2.924988E-1
4/7/2025  12:39:51.241432	-2.931497E-1
4/7/2025  12:39:51.241932	-3.006355E-1
4/7/2025  12:39:51.242432	-3.038901E-1
4/7/2025  12:39:51.242932	-3.090976E-1
4/7/2025  12:39:51.243432	-3.094231E-1
4/7/2025  12:39:51.243932	-3.217908E-1
4/7/2025  12:39:51.244432	-3.237436E-1
4/7/2025  12:39:51.244932	-3.243945E-1
4/7/2025  12:39:51.245432	-3.322057E-1
4/7/2025  12:39:51.245932	-3.253709E-1
4/7/2025  12:39:51.246432	-3.364368E-1
4/7/2025  12:39:51.246932	-3.315548E-1
4/7/2025  12:39:51.247432	-3.361113E-1
4/7/2025  12:39:51.247932	-3.380641E-1
4/7/2025  12:39:51.248432	-3.396914E-1
4/7/2025  12:39:51.248932	-3.409933E-1
4/7/2025  12:39:51.249432	-3.419697E-1
4/7/2025  12:39:51.249932	-3.445734E-1
4/7/2025  12:39:51.250432	-3.468517E-1
4/7/2025  12:39:51.250932	-3.527101E-1
4/7/2025  12:39:51.251432	-3.556393E-1
4/7/2025  12:39:51.251932	-3.601958E-1
4/7/2025  12:39:51.252432	-3.608467E-1
4/7/2025  12:39:51.252932	-3.641014E-1
4/7/2025  12:39:51.253432	-3.657287E-1
4/7/2025  12:39:51.253932	-3.683325E-1
4/7/2025  12:39:51.254432	-3.680070E-1
4/7/2025  12:39:51.254932	-3.663797E-1
4/7/2025  12:39:51.255432	-3.696343E-1
4/7/2025  12:39:51.255932	-3.741909E-1
4/7/2025  12:39:51.256432	-3.807002E-1
4/7/2025  12:39:51.256932	-3.872095E-1
4/7/2025  12:39:51.257432	-3.917660E-1
4/7/2025  12:39:51.257932	-3.969735E-1
4/7/2025  12:39:51.258432	-3.995772E-1
4/7/2025  12:39:51.258932	-3.995772E-1
4/7/2025  12:39:51.259432	-4.028319E-1
4/7/2025  12:39:51.259932	-4.070630E-1
4/7/2025  12:39:51.260432	-4.064120E-1
4/7/2025  12:39:51.260932	-4.070630E-1
4/7/2025  12:39:51.261432	-4.070630E-1
4/7/2025  12:39:51.261932	-4.060866E-1
4/7/2025  12:39:51.262432	-4.041338E-1
4/7/2025  12:39:51.262932	-4.028319E-1
4/7/2025  12:39:51.263432	-3.982754E-1
4/7/2025  12:39:51.263932	-3.995772E-1
4/7/2025  12:39:51.264432	-3.982754E-1
4/7/2025  12:39:51.264932	-3.904642E-1
4/7/2025  12:39:51.265432	-3.862331E-1
4/7/2025  12:39:51.265932	-3.820021E-1
4/7/2025  12:39:51.266432	-3.706107E-1
4/7/2025  12:39:51.266932	-3.618231E-1
4/7/2025  12:39:51.267432	-3.523846E-1
4/7/2025  12:39:51.267932	-3.409933E-1
4/7/2025  12:39:51.268432	-3.286256E-1
4/7/2025  12:39:51.268932	-3.117013E-1
4/7/2025  12:39:51.269432	-2.941261E-1
4/7/2025  12:39:51.269932	-2.726454E-1
4/7/2025  12:39:51.270432	-2.514901E-1
4/7/2025  12:39:51.270932	-2.277310E-1
4/7/2025  12:39:51.271432	-1.958353E-1
4/7/2025  12:39:51.271932	-1.636141E-1
4/7/2025  12:39:51.272432	-1.359495E-1
4/7/2025  12:39:51.272932	-9.103515E-2
4/7/2025  12:39:51.273432	-5.197919E-2
4/7/2025  12:39:51.273932	-1.585243E-2
4/7/2025  12:39:51.274432	3.719858E-2
4/7/2025  12:39:51.274932	7.820734E-2
4/7/2025  12:39:51.275432	1.302820E-1
4/7/2025  12:39:51.275932	1.686870E-1
4/7/2025  12:39:51.276432	2.367094E-1
4/7/2025  12:39:51.276932	2.826002E-1
4/7/2025  12:39:51.277432	3.382549E-1
4/7/2025  12:39:51.277932	3.851221E-1
4/7/2025  12:39:51.278432	4.352439E-1
4/7/2025  12:39:51.278932	4.912241E-1
4/7/2025  12:39:51.279432	5.429733E-1
4/7/2025  12:39:51.279932	5.970007E-1
4/7/2025  12:39:51.280432	6.513535E-1
4/7/2025  12:39:51.280932	7.141686E-1
4/7/2025  12:39:51.281432	7.734034E-1
4/7/2025  12:39:51.281932	8.248271E-1
4/7/2025  12:39:51.282432	8.889440E-1
4/7/2025  12:39:51.282932	9.367875E-1
4/7/2025  12:39:51.283432	9.953715E-1
4/7/2025  12:39:51.283932	1.036706E+0
4/7/2025  12:39:51.284432	1.096917E+0
4/7/2025  12:39:51.284932	1.143784E+0
4/7/2025  12:39:51.285432	1.192930E+0
4/7/2025  12:39:51.285932	1.234915E+0
4/7/2025  12:39:51.286432	1.278527E+0
4/7/2025  12:39:51.286932	1.303263E+0
4/7/2025  12:39:51.287432	1.355337E+0
4/7/2025  12:39:51.287932	1.387233E+0
4/7/2025  12:39:51.288432	1.412945E+0
4/7/2025  12:39:51.288932	1.438657E+0
4/7/2025  12:39:51.289432	1.460463E+0
4/7/2025  12:39:51.289932	1.473482E+0
4/7/2025  12:39:51.290432	1.493009E+0
4/7/2025  12:39:51.290932	1.504075E+0
4/7/2025  12:39:51.291432	1.510259E+0
4/7/2025  12:39:51.291932	1.514816E+0
4/7/2025  12:39:51.292432	1.513514E+0
4/7/2025  12:39:51.292932	1.512212E+0
4/7/2025  12:39:51.293432	1.507005E+0
4/7/2025  12:39:51.293932	1.495288E+0
4/7/2025  12:39:51.294432	1.489755E+0
4/7/2025  12:39:51.294932	1.486826E+0
4/7/2025  12:39:51.295432	1.459812E+0
4/7/2025  12:39:51.295932	1.437355E+0
4/7/2025  12:39:51.296432	1.436378E+0
4/7/2025  12:39:51.296932	1.406435E+0
4/7/2025  12:39:51.297432	1.386907E+0
4/7/2025  12:39:51.297932	1.362823E+0
4/7/2025  12:39:51.298432	1.332229E+0
4/7/2025  12:39:51.298932	1.304890E+0
4/7/2025  12:39:51.299432	1.271692E+0
4/7/2025  12:39:51.299932	1.237193E+0
4/7/2025  12:39:51.300432	1.192279E+0
4/7/2025  12:39:51.300932	1.159732E+0
4/7/2025  12:39:51.301432	1.120676E+0
4/7/2025  12:39:51.301932	1.081946E+0
4/7/2025  12:39:51.302432	1.045493E+0
4/7/2025  12:39:51.302932	9.950460E-1
4/7/2025  12:39:51.303432	9.527354E-1
4/7/2025  12:39:51.303932	8.840620E-1
4/7/2025  12:39:51.304432	8.541191E-1
4/7/2025  12:39:51.304932	8.222234E-1
4/7/2025  12:39:51.305432	7.795873E-1
4/7/2025  12:39:51.305932	7.405313E-1
4/7/2025  12:39:51.306432	6.865039E-1
4/7/2025  12:39:51.306932	6.617685E-1
4/7/2025  12:39:51.307432	6.279200E-1
4/7/2025  12:39:51.307932	5.943969E-1
4/7/2025  12:39:51.308432	5.638031E-1
4/7/2025  12:39:51.308932	5.325583E-1
4/7/2025  12:39:51.309432	5.029409E-1
4/7/2025  12:39:51.309932	4.671396E-1
4/7/2025  12:39:51.310432	4.339420E-1
4/7/2025  12:39:51.310932	4.147395E-1
4/7/2025  12:39:51.311432	3.847966E-1
4/7/2025  12:39:51.311932	3.564811E-1
4/7/2025  12:39:51.312432	3.330475E-1
4/7/2025  12:39:51.312932	3.057083E-1
4/7/2025  12:39:51.313432	2.861803E-1
4/7/2025  12:39:51.313932	2.673033E-1
4/7/2025  12:39:51.314432	2.370349E-1
4/7/2025  12:39:51.314932	2.266200E-1
4/7/2025  12:39:51.315432	2.025355E-1
4/7/2025  12:39:51.315932	1.781255E-1
4/7/2025  12:39:51.316432	1.494845E-1
4/7/2025  12:39:51.316932	1.348385E-1
4/7/2025  12:39:51.317432	1.110794E-1
4/7/2025  12:39:51.317932	9.155146E-2
4/7/2025  12:39:51.318432	6.160856E-2
4/7/2025  12:39:51.318932	5.021723E-2
4/7/2025  12:39:51.319432	3.134019E-2
4/7/2025  12:39:51.319932	1.539234E-2
4/7/2025  12:39:51.320432	4.208857E-4
4/7/2025  12:39:51.320932	-1.943256E-2
4/7/2025  12:39:51.321432	-3.407855E-2
4/7/2025  12:39:51.321932	-5.035186E-2
4/7/2025  12:39:51.322432	-6.109225E-2
4/7/2025  12:39:51.322932	-7.866743E-2
4/7/2025  12:39:51.323432	-8.843142E-2
4/7/2025  12:39:51.323932	-1.121905E-1
4/7/2025  12:39:51.324432	-1.356240E-1
4/7/2025  12:39:51.324932	-1.339967E-1
4/7/2025  12:39:51.325432	-1.466899E-1
4/7/2025  12:39:51.325932	-1.590576E-1
4/7/2025  12:39:51.326432	-1.632887E-1
4/7/2025  12:39:51.326932	-1.665433E-1
4/7/2025  12:39:51.327432	-1.821657E-1
4/7/2025  12:39:51.327932	-1.870477E-1
4/7/2025  12:39:51.328432	-1.850949E-1
4/7/2025  12:39:51.328932	-1.893260E-1
4/7/2025  12:39:51.329432	-1.912788E-1
4/7/2025  12:39:51.329932	-1.932316E-1
4/7/2025  12:39:51.330432	-1.860713E-1
4/7/2025  12:39:51.330932	-1.977881E-1
4/7/2025  12:39:51.331432	-2.059248E-1
4/7/2025  12:39:51.331932	-2.072266E-1
4/7/2025  12:39:51.332432	-2.072266E-1
4/7/2025  12:39:51.332932	-2.069012E-1
4/7/2025  12:39:51.333432	-2.104813E-1
4/7/2025  12:39:51.333932	-2.114577E-1
4/7/2025  12:39:51.334432	-2.114577E-1
4/7/2025  12:39:51.334932	-2.085285E-1
4/7/2025  12:39:51.335432	-2.127596E-1
4/7/2025  12:39:51.335932	-2.134105E-1
4/7/2025  12:39:51.336432	-2.221981E-1
4/7/2025  12:39:51.336932	-2.300093E-1
4/7/2025  12:39:51.337432	-2.394478E-1
4/7/2025  12:39:51.337932	-2.456317E-1
4/7/2025  12:39:51.338432	-2.550702E-1
4/7/2025  12:39:51.338932	-2.615795E-1
4/7/2025  12:39:51.339432	-2.635323E-1
4/7/2025  12:39:51.339932	-2.697162E-1
4/7/2025  12:39:51.340432	-2.759000E-1
4/7/2025  12:39:51.340932	-2.804566E-1
4/7/2025  12:39:51.341432	-2.853386E-1
4/7/2025  12:39:51.341932	-2.924988E-1
4/7/2025  12:39:51.342432	-2.846876E-1
4/7/2025  12:39:51.342932	-2.938007E-1
4/7/2025  12:39:51.343432	-3.103995E-1
4/7/2025  12:39:51.343932	-3.113759E-1
4/7/2025  12:39:51.344432	-3.156069E-1
4/7/2025  12:39:51.344932	-3.214653E-1
4/7/2025  12:39:51.345432	-3.260218E-1
4/7/2025  12:39:51.345932	-3.217908E-1
4/7/2025  12:39:51.346432	-3.247200E-1
4/7/2025  12:39:51.346932	-3.214653E-1
4/7/2025  12:39:51.347432	-3.188616E-1
4/7/2025  12:39:51.347932	-3.165833E-1
4/7/2025  12:39:51.348432	-3.169088E-1
4/7/2025  12:39:51.348932	-3.149560E-1
4/7/2025  12:39:51.349432	-3.133287E-1
4/7/2025  12:39:51.349932	-3.123523E-1
4/7/2025  12:39:51.350432	-3.097485E-1
4/7/2025  12:39:51.350932	-3.087721E-1
4/7/2025  12:39:51.351432	-3.051920E-1
4/7/2025  12:39:51.351932	-3.051920E-1
4/7/2025  12:39:51.352432	-3.022628E-1
4/7/2025  12:39:51.352932	-2.967299E-1
4/7/2025  12:39:51.353432	-2.970553E-1
4/7/2025  12:39:51.353932	-2.983572E-1
4/7/2025  12:39:51.354432	-2.941261E-1
4/7/2025  12:39:51.354932	-2.898951E-1
4/7/2025  12:39:51.355432	-2.957535E-1
4/7/2025  12:39:51.355932	-2.882678E-1
4/7/2025  12:39:51.356432	-2.905460E-1
4/7/2025  12:39:51.356932	-2.928243E-1
4/7/2025  12:39:51.357432	-3.009609E-1
4/7/2025  12:39:51.357932	-3.038901E-1
4/7/2025  12:39:51.358432	-3.055175E-1
4/7/2025  12:39:51.358932	-3.146305E-1
4/7/2025  12:39:51.359432	-3.133287E-1
4/7/2025  12:39:51.359932	-3.146305E-1
4/7/2025  12:39:51.360432	-3.149560E-1
4/7/2025  12:39:51.360932	-3.175597E-1
4/7/2025  12:39:51.361432	-3.175597E-1
4/7/2025  12:39:51.361932	-3.283001E-1
4/7/2025  12:39:51.362432	-3.243945E-1
4/7/2025  12:39:51.362932	-3.296020E-1
4/7/2025  12:39:51.363432	-3.305784E-1
4/7/2025  12:39:51.363932	-3.380641E-1
4/7/2025  12:39:51.364432	-3.367622E-1
4/7/2025  12:39:51.364932	-3.370877E-1
4/7/2025  12:39:51.365432	-3.387150E-1
4/7/2025  12:39:51.365932	-3.426206E-1
4/7/2025  12:39:51.366432	-3.380641E-1
4/7/2025  12:39:51.366932	-3.383896E-1
4/7/2025  12:39:51.367432	-3.325312E-1
4/7/2025  12:39:51.367932	-3.299274E-1
4/7/2025  12:39:51.368432	-3.250454E-1
4/7/2025  12:39:51.368932	-3.230926E-1
4/7/2025  12:39:51.369432	-3.195125E-1
4/7/2025  12:39:51.369932	-3.162579E-1
4/7/2025  12:39:51.370432	-3.139796E-1
4/7/2025  12:39:51.370932	-3.103995E-1
4/7/2025  12:39:51.371432	-3.126777E-1
4/7/2025  12:39:51.371932	-3.113759E-1
4/7/2025  12:39:51.372432	-3.055175E-1
4/7/2025  12:39:51.372932	-3.074703E-1
4/7/2025  12:39:51.373432	-3.016119E-1
4/7/2025  12:39:51.373932	-2.964044E-1
4/7/2025  12:39:51.374432	-2.915224E-1
4/7/2025  12:39:51.374932	-2.859895E-1
4/7/2025  12:39:51.375432	-2.885932E-1
4/7/2025  12:39:51.375932	-2.951025E-1
4/7/2025  12:39:51.376432	-2.918479E-1
4/7/2025  12:39:51.376932	-2.947771E-1
4/7/2025  12:39:51.377432	-2.993336E-1
4/7/2025  12:39:51.377932	-3.009609E-1
4/7/2025  12:39:51.378432	-3.019373E-1
4/7/2025  12:39:51.378932	-3.068193E-1
4/7/2025  12:39:51.379432	-3.081212E-1
4/7/2025  12:39:51.379932	-3.097485E-1
4/7/2025  12:39:51.380432	-3.094231E-1
4/7/2025  12:39:51.380932	-3.133287E-1
4/7/2025  12:39:51.381432	-3.185361E-1
4/7/2025  12:39:51.381932	-3.162579E-1
4/7/2025  12:39:51.382432	-3.247200E-1
4/7/2025  12:39:51.382932	-3.240690E-1
4/7/2025  12:39:51.383432	-3.269982E-1
4/7/2025  12:39:51.383932	-3.292765E-1
4/7/2025  12:39:51.384432	-3.351349E-1
4/7/2025  12:39:51.384932	-3.367622E-1
4/7/2025  12:39:51.385432	-3.348094E-1
4/7/2025  12:39:51.385932	-3.374132E-1
4/7/2025  12:39:51.386432	-3.325312E-1
4/7/2025  12:39:51.386932	-3.344840E-1
4/7/2025  12:39:51.387432	-3.283001E-1
4/7/2025  12:39:51.387932	-3.250454E-1
4/7/2025  12:39:51.388432	-3.240690E-1
4/7/2025  12:39:51.388932	-3.195125E-1
4/7/2025  12:39:51.389432	-3.146305E-1
4/7/2025  12:39:51.389932	-3.110504E-1
4/7/2025  12:39:51.390432	-3.103995E-1
4/7/2025  12:39:51.390932	-3.084467E-1
4/7/2025  12:39:51.391432	-3.090976E-1
4/7/2025  12:39:51.391932	-3.077957E-1
4/7/2025  12:39:51.392432	-3.055175E-1
4/7/2025  12:39:51.392932	-3.016119E-1
4/7/2025  12:39:51.393432	-2.977063E-1
4/7/2025  12:39:51.393932	-2.898951E-1
4/7/2025  12:39:51.394432	-2.869659E-1
4/7/2025  12:39:51.394932	-2.879423E-1
4/7/2025  12:39:51.395432	-2.850131E-1
4/7/2025  12:39:51.395932	-2.866404E-1
4/7/2025  12:39:51.396432	-2.944516E-1
4/7/2025  12:39:51.396932	-2.879423E-1
4/7/2025  12:39:51.397432	-2.954280E-1
4/7/2025  12:39:51.397932	-2.996591E-1
4/7/2025  12:39:51.398432	-3.019373E-1
4/7/2025  12:39:51.398932	-3.032392E-1
4/7/2025  12:39:51.399432	-3.051920E-1
4/7/2025  12:39:51.399932	-3.094231E-1
4/7/2025  12:39:51.400432	-3.133287E-1
4/7/2025  12:39:51.400932	-3.136541E-1
4/7/2025  12:39:51.401432	-3.185361E-1
4/7/2025  12:39:51.401932	-3.227672E-1
4/7/2025  12:39:51.402432	-3.234181E-1
4/7/2025  12:39:51.402932	-3.322057E-1
4/7/2025  12:39:51.403432	-3.289510E-1
4/7/2025  12:39:51.403932	-3.325312E-1
4/7/2025  12:39:51.404432	-3.341585E-1
4/7/2025  12:39:51.404932	-3.361113E-1
4/7/2025  12:39:51.405432	-3.377386E-1
4/7/2025  12:39:51.405932	-3.396914E-1
4/7/2025  12:39:51.406432	-3.377386E-1
4/7/2025  12:39:51.406932	-3.331821E-1
4/7/2025  12:39:51.407432	-3.289510E-1
4/7/2025  12:39:51.407932	-3.253709E-1
4/7/2025  12:39:51.408432	-3.221162E-1
4/7/2025  12:39:51.408932	-3.178852E-1
4/7/2025  12:39:51.409432	-3.165833E-1
4/7/2025  12:39:51.409932	-3.149560E-1
4/7/2025  12:39:51.410432	-3.133287E-1
4/7/2025  12:39:51.410932	-3.081212E-1
4/7/2025  12:39:51.411432	-3.051920E-1
4/7/2025  12:39:51.411932	-3.051920E-1
4/7/2025  12:39:51.412432	-3.035647E-1
4/7/2025  12:39:51.412932	-2.999845E-1
4/7/2025  12:39:51.413432	-2.954280E-1
4/7/2025  12:39:51.413932	-2.980317E-1
4/7/2025  12:39:51.414432	-2.902205E-1
4/7/2025  12:39:51.414932	-2.908715E-1
4/7/2025  12:39:51.415432	-2.905460E-1
4/7/2025  12:39:51.415932	-2.941261E-1
4/7/2025  12:39:51.416432	-2.928243E-1
4/7/2025  12:39:51.416932	-2.973808E-1
4/7/2025  12:39:51.417432	-2.964044E-1
4/7/2025  12:39:51.417932	-2.999845E-1
4/7/2025  12:39:51.418432	-3.022628E-1
4/7/2025  12:39:51.418932	-3.055175E-1
4/7/2025  12:39:51.419432	-3.090976E-1
4/7/2025  12:39:51.419932	-3.139796E-1
4/7/2025  12:39:51.420432	-3.149560E-1
4/7/2025  12:39:51.420932	-3.169088E-1
4/7/2025  12:39:51.421432	-3.211398E-1
4/7/2025  12:39:51.421932	-3.195125E-1
4/7/2025  12:39:51.422432	-3.234181E-1
4/7/2025  12:39:51.422932	-3.234181E-1
4/7/2025  12:39:51.423432	-3.322057E-1
4/7/2025  12:39:51.423932	-3.354604E-1
4/7/2025  12:39:51.424432	-3.374132E-1
4/7/2025  12:39:51.424932	-3.357858E-1
4/7/2025  12:39:51.425432	-3.344840E-1
4/7/2025  12:39:51.425932	-3.344840E-1
4/7/2025  12:39:51.426432	-3.354604E-1
4/7/2025  12:39:51.426932	-3.283001E-1
4/7/2025  12:39:51.427432	-3.266728E-1
4/7/2025  12:39:51.427932	-3.211398E-1
4/7/2025  12:39:51.428432	-3.198380E-1
4/7/2025  12:39:51.428932	-3.201635E-1
4/7/2025  12:39:51.429432	-3.178852E-1
4/7/2025  12:39:51.429932	-3.120268E-1
4/7/2025  12:39:51.430432	-3.110504E-1
4/7/2025  12:39:51.430932	-3.061684E-1
4/7/2025  12:39:51.431432	-3.061684E-1
4/7/2025  12:39:51.431932	-2.977063E-1
4/7/2025  12:39:51.432432	-3.006355E-1
4/7/2025  12:39:51.432932	-2.983572E-1
4/7/2025  12:39:51.433432	-2.944516E-1
4/7/2025  12:39:51.433932	-2.980317E-1
4/7/2025  12:39:51.434432	-2.905460E-1
4/7/2025  12:39:51.434932	-2.820839E-1
4/7/2025  12:39:51.435432	-2.837112E-1
4/7/2025  12:39:51.435932	-2.846876E-1
4/7/2025  12:39:51.436432	-2.846876E-1
4/7/2025  12:39:51.436932	-2.905460E-1
4/7/2025  12:39:51.437432	-2.908715E-1
4/7/2025  12:39:51.437932	-2.960789E-1
4/7/2025  12:39:51.438432	-2.999845E-1
4/7/2025  12:39:51.438932	-3.009609E-1
4/7/2025  12:39:51.439432	-3.064939E-1
4/7/2025  12:39:51.439932	-3.090976E-1
4/7/2025  12:39:51.440432	-3.113759E-1
4/7/2025  12:39:51.440932	-3.107249E-1
4/7/2025  12:39:51.441432	-3.110504E-1
4/7/2025  12:39:51.441932	-3.149560E-1
4/7/2025  12:39:51.442432	-3.256964E-1
4/7/2025  12:39:51.442932	-3.283001E-1
4/7/2025  12:39:51.443432	-3.227672E-1
4/7/2025  12:39:51.443932	-3.292765E-1
4/7/2025  12:39:51.444432	-3.403424E-1
4/7/2025  12:39:51.444932	-3.354604E-1
4/7/2025  12:39:51.445432	-3.367622E-1
4/7/2025  12:39:51.445932	-3.328566E-1
4/7/2025  12:39:51.446432	-3.361113E-1
4/7/2025  12:39:51.446932	-3.315548E-1
4/7/2025  12:39:51.447432	-3.299274E-1
4/7/2025  12:39:51.447932	-3.260218E-1
4/7/2025  12:39:51.448432	-3.269982E-1
4/7/2025  12:39:51.448932	-3.217908E-1
4/7/2025  12:39:51.449432	-3.178852E-1
4/7/2025  12:39:51.449932	-3.152815E-1
4/7/2025  12:39:51.450432	-3.139796E-1
4/7/2025  12:39:51.450932	-3.117013E-1
4/7/2025  12:39:51.451432	-3.097485E-1
4/7/2025  12:39:51.451932	-3.084467E-1
4/7/2025  12:39:51.452432	-3.074703E-1
4/7/2025  12:39:51.452932	-2.996591E-1
4/7/2025  12:39:51.453432	-2.973808E-1
4/7/2025  12:39:51.453932	-2.996591E-1
4/7/2025  12:39:51.454432	-2.892441E-1
4/7/2025  12:39:51.454932	-2.879423E-1
4/7/2025  12:39:51.455432	-2.915224E-1
4/7/2025  12:39:51.455932	-2.921733E-1
4/7/2025  12:39:51.456432	-2.885932E-1
4/7/2025  12:39:51.456932	-2.951025E-1
4/7/2025  12:39:51.457432	-2.947771E-1
4/7/2025  12:39:51.457932	-2.996591E-1
4/7/2025  12:39:51.458432	-3.025883E-1
4/7/2025  12:39:51.458932	-3.022628E-1
4/7/2025  12:39:51.459432	-3.068193E-1
4/7/2025  12:39:51.459932	-3.090976E-1
4/7/2025  12:39:51.460432	-3.126777E-1
4/7/2025  12:39:51.460932	-3.130032E-1
4/7/2025  12:39:51.461432	-3.214653E-1
4/7/2025  12:39:51.461932	-3.169088E-1
4/7/2025  12:39:51.462432	-3.165833E-1
4/7/2025  12:39:51.462932	-3.266728E-1
4/7/2025  12:39:51.463432	-3.224417E-1
4/7/2025  12:39:51.463932	-3.276492E-1
4/7/2025  12:39:51.464432	-3.302529E-1
4/7/2025  12:39:51.464932	-3.354604E-1
4/7/2025  12:39:51.465432	-3.315548E-1
4/7/2025  12:39:51.465932	-3.328566E-1
4/7/2025  12:39:51.466432	-3.309038E-1
4/7/2025  12:39:51.466932	-3.260218E-1
4/7/2025  12:39:51.467432	-3.260218E-1
4/7/2025  12:39:51.467932	-3.204889E-1
4/7/2025  12:39:51.468432	-3.178852E-1
4/7/2025  12:39:51.468932	-3.133287E-1
4/7/2025  12:39:51.469432	-3.117013E-1
4/7/2025  12:39:51.469932	-3.090976E-1
4/7/2025  12:39:51.470432	-3.064939E-1
4/7/2025  12:39:51.470932	-3.058429E-1
4/7/2025  12:39:51.471432	-3.019373E-1
4/7/2025  12:39:51.471932	-3.012864E-1
4/7/2025  12:39:51.472432	-2.964044E-1
4/7/2025  12:39:51.472932	-2.898951E-1
4/7/2025  12:39:51.473432	-2.872914E-1
4/7/2025  12:39:51.473932	-2.814330E-1
4/7/2025  12:39:51.474432	-2.804566E-1
4/7/2025  12:39:51.474932	-2.768764E-1
4/7/2025  12:39:51.475432	-2.759000E-1
4/7/2025  12:39:51.475932	-2.798056E-1
4/7/2025  12:39:51.476432	-2.820839E-1
4/7/2025  12:39:51.476932	-2.843622E-1
4/7/2025  12:39:51.477432	-2.820839E-1
4/7/2025  12:39:51.477932	-2.824094E-1
4/7/2025  12:39:51.478432	-2.885932E-1
4/7/2025  12:39:51.478932	-2.921733E-1
4/7/2025  12:39:51.479432	-2.986827E-1
4/7/2025  12:39:51.479932	-3.009609E-1
4/7/2025  12:39:51.480432	-3.012864E-1
4/7/2025  12:39:51.480932	-3.042156E-1
4/7/2025  12:39:51.481432	-3.133287E-1
4/7/2025  12:39:51.481932	-3.068193E-1
4/7/2025  12:39:51.482432	-3.055175E-1
4/7/2025  12:39:51.482932	-3.120268E-1
4/7/2025  12:39:51.483432	-3.182107E-1
4/7/2025  12:39:51.483932	-3.198380E-1
4/7/2025  12:39:51.484432	-3.217908E-1
4/7/2025  12:39:51.484932	-3.195125E-1
4/7/2025  12:39:51.485432	-3.243945E-1
4/7/2025  12:39:51.485932	-3.276492E-1
4/7/2025  12:39:51.486432	-3.260218E-1
4/7/2025  12:39:51.486932	-3.156069E-1
4/7/2025  12:39:51.487432	-3.175597E-1
4/7/2025  12:39:51.487932	-3.117013E-1
4/7/2025  12:39:51.488432	-3.136541E-1
4/7/2025  12:39:51.488932	-3.058429E-1
4/7/2025  12:39:51.489432	-3.055175E-1
4/7/2025  12:39:51.489932	-3.009609E-1
4/7/2025  12:39:51.490432	-2.973808E-1
4/7/2025  12:39:51.490932	-2.941261E-1
4/7/2025  12:39:51.491432	-2.898951E-1
4/7/2025  12:39:51.491932	-2.902205E-1
4/7/2025  12:39:51.492432	-2.859895E-1
4/7/2025  12:39:51.492932	-2.830603E-1
4/7/2025  12:39:51.493432	-2.778528E-1
4/7/2025  12:39:51.493932	-2.772019E-1
4/7/2025  12:39:51.494432	-2.690652E-1
4/7/2025  12:39:51.494932	-2.703671E-1
4/7/2025  12:39:51.495432	-2.648342E-1
4/7/2025  12:39:51.495932	-2.609286E-1
4/7/2025  12:39:51.496432	-2.703671E-1
4/7/2025  12:39:51.496932	-2.684143E-1
4/7/2025  12:39:51.497432	-2.723199E-1
4/7/2025  12:39:51.497932	-2.752491E-1
4/7/2025  12:39:51.498432	-2.781783E-1
4/7/2025  12:39:51.498932	-2.824094E-1
4/7/2025  12:39:51.499432	-2.824094E-1
4/7/2025  12:39:51.499932	-2.837112E-1
4/7/2025  12:39:51.500432	-2.872914E-1
4/7/2025  12:39:51.500932	-2.876168E-1
4/7/2025  12:39:51.501432	-2.850131E-1
4/7/2025  12:39:51.501932	-2.967299E-1
4/7/2025  12:39:51.502432	-2.902205E-1
4/7/2025  12:39:51.502932	-2.986827E-1
4/7/2025  12:39:51.503432	-2.977063E-1
4/7/2025  12:39:51.503932	-3.035647E-1
4/7/2025  12:39:51.504432	-2.999845E-1
4/7/2025  12:39:51.504932	-3.003100E-1
4/7/2025  12:39:51.505432	-3.058429E-1
4/7/2025  12:39:51.505932	-3.058429E-1
4/7/2025  12:39:51.506432	-3.003100E-1
4/7/2025  12:39:51.506932	-2.996591E-1
4/7/2025  12:39:51.507432	-2.947771E-1
4/7/2025  12:39:51.507932	-2.885932E-1
4/7/2025  12:39:51.508432	-2.843622E-1
4/7/2025  12:39:51.508932	-2.814330E-1
4/7/2025  12:39:51.509432	-2.759000E-1
4/7/2025  12:39:51.509932	-2.697162E-1
4/7/2025  12:39:51.510432	-2.664615E-1
4/7/2025  12:39:51.510932	-2.641832E-1
4/7/2025  12:39:51.511432	-2.619050E-1
4/7/2025  12:39:51.511932	-2.612540E-1
4/7/2025  12:39:51.512432	-2.544193E-1
4/7/2025  12:39:51.512932	-2.488863E-1
4/7/2025  12:39:51.513432	-2.459571E-1
4/7/2025  12:39:51.513932	-2.313111E-1
4/7/2025  12:39:51.514432	-2.394478E-1
4/7/2025  12:39:51.514932	-2.280565E-1
4/7/2025  12:39:51.515432	-2.283819E-1
4/7/2025  12:39:51.515932	-2.414006E-1
4/7/2025  12:39:51.516432	-2.300093E-1
4/7/2025  12:39:51.516932	-2.309857E-1
4/7/2025  12:39:51.517432	-2.381459E-1
4/7/2025  12:39:51.517932	-2.352167E-1
4/7/2025  12:39:51.518432	-2.391223E-1
4/7/2025  12:39:51.518932	-2.371695E-1
4/7/2025  12:39:51.519432	-2.374950E-1
4/7/2025  12:39:51.519932	-2.410751E-1
4/7/2025  12:39:51.520432	-2.420515E-1
4/7/2025  12:39:51.520932	-2.453062E-1
4/7/2025  12:39:51.521432	-2.462826E-1
4/7/2025  12:39:51.521932	-2.446553E-1
4/7/2025  12:39:51.522432	-2.505137E-1
4/7/2025  12:39:51.522932	-2.544193E-1
4/7/2025  12:39:51.523432	-2.531174E-1
4/7/2025  12:39:51.523932	-2.531174E-1
4/7/2025  12:39:51.524432	-2.518155E-1
4/7/2025  12:39:51.524932	-2.609286E-1
4/7/2025  12:39:51.525432	-2.563720E-1
4/7/2025  12:39:51.525932	-2.557211E-1
4/7/2025  12:39:51.526432	-2.609286E-1
4/7/2025  12:39:51.526932	-2.531174E-1
4/7/2025  12:39:51.527432	-2.501882E-1
4/7/2025  12:39:51.527932	-2.427025E-1
4/7/2025  12:39:51.528432	-2.378205E-1
4/7/2025  12:39:51.528932	-2.313111E-1
4/7/2025  12:39:51.529432	-2.277310E-1
4/7/2025  12:39:51.529932	-2.251273E-1
4/7/2025  12:39:51.530432	-2.195944E-1
4/7/2025  12:39:51.530932	-2.215472E-1
4/7/2025  12:39:51.531432	-2.186180E-1
4/7/2025  12:39:51.531932	-2.121086E-1
4/7/2025  12:39:51.532432	-2.062502E-1
4/7/2025  12:39:51.532932	-2.036465E-1
4/7/2025  12:39:51.533432	-2.016937E-1
4/7/2025  12:39:51.533932	-1.893260E-1
4/7/2025  12:39:51.534432	-1.850949E-1
4/7/2025  12:39:51.534932	-1.828167E-1
4/7/2025  12:39:51.535432	-1.717508E-1
4/7/2025  12:39:51.535932	-1.802129E-1
4/7/2025  12:39:51.536432	-1.798875E-1
4/7/2025  12:39:51.536932	-1.818403E-1
4/7/2025  12:39:51.537432	-1.844440E-1
4/7/2025  12:39:51.537932	-1.847695E-1
4/7/2025  12:39:51.538432	-1.876987E-1
4/7/2025  12:39:51.538932	-1.912788E-1
4/7/2025  12:39:51.539432	-1.883496E-1
4/7/2025  12:39:51.539932	-1.932316E-1
4/7/2025  12:39:51.540432	-1.945334E-1
4/7/2025  12:39:51.540932	-2.029956E-1
4/7/2025  12:39:51.541432	-2.085285E-1
4/7/2025  12:39:51.541932	-2.026701E-1
4/7/2025  12:39:51.542432	-2.007173E-1
4/7/2025  12:39:51.542932	-2.192689E-1
4/7/2025  12:39:51.543432	-2.069012E-1
4/7/2025  12:39:51.543932	-2.114577E-1
4/7/2025  12:39:51.544432	-2.130850E-1
4/7/2025  12:39:51.544932	-2.248018E-1
4/7/2025  12:39:51.545432	-2.186180E-1
4/7/2025  12:39:51.545932	-2.169906E-1
4/7/2025  12:39:51.546432	-2.108068E-1
4/7/2025  12:39:51.546932	-2.117832E-1
4/7/2025  12:39:51.547432	-2.104813E-1
4/7/2025  12:39:51.547932	-2.049484E-1
4/7/2025  12:39:51.548432	-2.023446E-1
4/7/2025  12:39:51.548932	-1.964862E-1
4/7/2025  12:39:51.549432	-1.808639E-1
4/7/2025  12:39:51.549932	-1.867223E-1
4/7/2025  12:39:51.550432	-1.857459E-1
4/7/2025  12:39:51.550932	-1.890005E-1
4/7/2025  12:39:51.551432	-1.867223E-1
4/7/2025  12:39:51.551932	-1.769583E-1
4/7/2025  12:39:51.552432	-1.769583E-1
4/7/2025  12:39:51.552932	-1.675197E-1
4/7/2025  12:39:51.553432	-1.632887E-1
4/7/2025  12:39:51.553932	-1.600340E-1
4/7/2025  12:39:51.554432	-1.538502E-1
4/7/2025  12:39:51.554932	-1.525483E-1
4/7/2025  12:39:51.555432	-1.577558E-1
4/7/2025  12:39:51.555932	-1.512464E-1
4/7/2025  12:39:51.556432	-1.619868E-1
4/7/2025  12:39:51.556932	-1.587322E-1
4/7/2025  12:39:51.557432	-1.593831E-1
4/7/2025  12:39:51.557932	-1.613359E-1
4/7/2025  12:39:51.558432	-1.655669E-1
4/7/2025  12:39:51.558932	-1.678452E-1
4/7/2025  12:39:51.559432	-1.707744E-1
4/7/2025  12:39:51.559932	-1.704489E-1
4/7/2025  12:39:51.560432	-1.753309E-1
4/7/2025  12:39:51.560932	-1.795620E-1
4/7/2025  12:39:51.561432	-1.837931E-1
4/7/2025  12:39:51.561932	-1.987645E-1
4/7/2025  12:39:51.562432	-1.779347E-1
4/7/2025  12:39:51.562932	-2.072266E-1
4/7/2025  12:39:51.563432	-1.828167E-1
4/7/2025  12:39:51.563932	-1.893260E-1
4/7/2025  12:39:51.564432	-2.075521E-1
4/7/2025  12:39:51.564932	-2.124341E-1
4/7/2025  12:39:51.565432	-2.163397E-1
4/7/2025  12:39:51.565932	-2.199198E-1
4/7/2025  12:39:51.566432	-2.238254E-1
4/7/2025  12:39:51.566932	-2.156888E-1
4/7/2025  12:39:51.567432	-2.160142E-1
4/7/2025  12:39:51.567932	-2.147124E-1
4/7/2025  12:39:51.568432	-2.104813E-1
4/7/2025  12:39:51.568932	-2.085285E-1
4/7/2025  12:39:51.569432	-2.062502E-1
4/7/2025  12:39:51.569932	-2.033210E-1
4/7/2025  12:39:51.570432	-2.049484E-1
4/7/2025  12:39:51.570932	-2.134105E-1
4/7/2025  12:39:51.571432	-2.016937E-1
4/7/2025  12:39:51.571932	-2.046229E-1
4/7/2025  12:39:51.572432	-1.984390E-1
4/7/2025  12:39:51.572932	-1.968117E-1
4/7/2025  12:39:51.573432	-1.916042E-1
4/7/2025  12:39:51.573932	-1.873732E-1
4/7/2025  12:39:51.574432	-1.792365E-1
4/7/2025  12:39:51.574932	-1.834676E-1
4/7/2025  12:39:51.575432	-1.811893E-1
4/7/2025  12:39:51.575932	-1.863968E-1
4/7/2025  12:39:51.576432	-1.837931E-1
4/7/2025  12:39:51.576932	-1.912788E-1
4/7/2025  12:39:51.577432	-1.968117E-1
4/7/2025  12:39:51.577932	-2.016937E-1
4/7/2025  12:39:51.578432	-2.042974E-1
4/7/2025  12:39:51.578932	-2.085285E-1
4/7/2025  12:39:51.579432	-2.124341E-1
4/7/2025  12:39:51.579932	-2.169906E-1
4/7/2025  12:39:51.580432	-2.235000E-1
4/7/2025  12:39:51.580932	-2.300093E-1
4/7/2025  12:39:51.581432	-2.345658E-1
4/7/2025  12:39:51.581932	-2.381459E-1
4/7/2025  12:39:51.582432	-2.482354E-1
4/7/2025  12:39:51.582932	-2.446553E-1
4/7/2025  12:39:51.583432	-2.534429E-1
4/7/2025  12:39:51.583932	-2.628814E-1
4/7/2025  12:39:51.584432	-2.586503E-1
4/7/2025  12:39:51.584932	-2.589758E-1
4/7/2025  12:39:51.585432	-2.674379E-1
4/7/2025  12:39:51.585932	-2.622304E-1
4/7/2025  12:39:51.586432	-2.622304E-1
4/7/2025  12:39:51.586932	-2.628814E-1
4/7/2025  12:39:51.587432	-2.622304E-1
4/7/2025  12:39:51.587932	-2.596267E-1
4/7/2025  12:39:51.588432	-2.570230E-1
4/7/2025  12:39:51.588932	-2.514901E-1
4/7/2025  12:39:51.589432	-2.459571E-1
4/7/2025  12:39:51.589932	-2.466081E-1
4/7/2025  12:39:51.590432	-2.459571E-1
4/7/2025  12:39:51.590932	-2.433534E-1
4/7/2025  12:39:51.591432	-2.381459E-1
4/7/2025  12:39:51.591932	-2.430279E-1
4/7/2025  12:39:51.592432	-2.352167E-1
4/7/2025  12:39:51.592932	-2.303347E-1
4/7/2025  12:39:51.593432	-2.225236E-1
4/7/2025  12:39:51.593932	-2.195944E-1
4/7/2025  12:39:51.594432	-2.108068E-1
4/7/2025  12:39:51.594932	-2.176416E-1
4/7/2025  12:39:51.595432	-2.111322E-1
4/7/2025  12:39:51.595932	-2.182925E-1
4/7/2025  12:39:51.596432	-2.150378E-1
4/7/2025  12:39:51.596932	-2.150378E-1
4/7/2025  12:39:51.597432	-2.169906E-1
4/7/2025  12:39:51.597932	-2.202453E-1
4/7/2025  12:39:51.598432	-2.205708E-1
4/7/2025  12:39:51.598932	-2.238254E-1
4/7/2025  12:39:51.599432	-2.277310E-1
4/7/2025  12:39:51.599932	-2.309857E-1
4/7/2025  12:39:51.600432	-2.339149E-1
4/7/2025  12:39:51.600932	-2.361931E-1
4/7/2025  12:39:51.601432	-2.475845E-1
4/7/2025  12:39:51.601932	-2.407497E-1
4/7/2025  12:39:51.602432	-2.505137E-1
4/7/2025  12:39:51.602932	-2.521410E-1
4/7/2025  12:39:51.603432	-2.449807E-1
4/7/2025  12:39:51.603932	-2.527919E-1
4/7/2025  12:39:51.604432	-2.508391E-1
4/7/2025  12:39:51.604932	-2.566975E-1
4/7/2025  12:39:51.605432	-2.599522E-1
4/7/2025  12:39:51.605932	-2.654851E-1
4/7/2025  12:39:51.606432	-2.537683E-1
4/7/2025  12:39:51.606932	-2.521410E-1
4/7/2025  12:39:51.607432	-2.521410E-1
4/7/2025  12:39:51.607932	-2.508391E-1
4/7/2025  12:39:51.608432	-2.410751E-1
4/7/2025  12:39:51.608932	-2.378205E-1
4/7/2025  12:39:51.609432	-2.335894E-1
4/7/2025  12:39:51.609932	-2.326130E-1
4/7/2025  12:39:51.610432	-2.306602E-1
4/7/2025  12:39:51.610932	-2.300093E-1
4/7/2025  12:39:51.611432	-2.221981E-1
4/7/2025  12:39:51.611932	-2.218726E-1
4/7/2025  12:39:51.612432	-2.182925E-1
4/7/2025  12:39:51.612932	-2.147124E-1
4/7/2025  12:39:51.613432	-1.951844E-1
4/7/2025  12:39:51.613932	-2.023446E-1
4/7/2025  12:39:51.614432	-1.990900E-1
4/7/2025  12:39:51.614932	-2.013682E-1
4/7/2025  12:39:51.615432	-1.987645E-1
4/7/2025  12:39:51.615932	-2.059248E-1
4/7/2025  12:39:51.616432	-2.020192E-1
4/7/2025  12:39:51.616932	-2.052738E-1
4/7/2025  12:39:51.617432	-2.033210E-1
4/7/2025  12:39:51.617932	-2.046229E-1
4/7/2025  12:39:51.618432	-2.101558E-1
4/7/2025  12:39:51.618932	-2.108068E-1
4/7/2025  12:39:51.619432	-2.176416E-1
4/7/2025  12:39:51.619932	-2.202453E-1
4/7/2025  12:39:51.620432	-2.267546E-1
4/7/2025  12:39:51.620932	-2.261037E-1
4/7/2025  12:39:51.621432	-2.238254E-1
4/7/2025  12:39:51.621932	-2.342403E-1
4/7/2025  12:39:51.622432	-2.397733E-1
4/7/2025  12:39:51.622932	-2.430279E-1
4/7/2025  12:39:51.623432	-2.391223E-1
4/7/2025  12:39:51.623932	-2.547447E-1
4/7/2025  12:39:51.624432	-2.527919E-1
4/7/2025  12:39:51.624932	-2.602776E-1
4/7/2025  12:39:51.625432	-2.547447E-1
4/7/2025  12:39:51.625932	-2.534429E-1
4/7/2025  12:39:51.626432	-2.498627E-1
4/7/2025  12:39:51.626932	-2.511646E-1
4/7/2025  12:39:51.627432	-2.433534E-1
4/7/2025  12:39:51.627932	-2.462826E-1
4/7/2025  12:39:51.628432	-2.456317E-1
4/7/2025  12:39:51.628932	-2.423770E-1
4/7/2025  12:39:51.629432	-2.404242E-1
4/7/2025  12:39:51.629932	-2.352167E-1
4/7/2025  12:39:51.630432	-2.309857E-1
4/7/2025  12:39:51.630932	-2.319621E-1
4/7/2025  12:39:51.631432	-2.293583E-1
4/7/2025  12:39:51.631932	-2.303347E-1
4/7/2025  12:39:51.632432	-2.215472E-1
4/7/2025  12:39:51.632932	-2.192689E-1
4/7/2025  12:39:51.633432	-2.221981E-1
4/7/2025  12:39:51.633932	-2.163397E-1
4/7/2025  12:39:51.634432	-2.140614E-1
4/7/2025  12:39:51.634932	-2.147124E-1
4/7/2025  12:39:51.635432	-2.088540E-1
4/7/2025  12:39:51.635932	-2.108068E-1
4/7/2025  12:39:51.636432	-2.075521E-1
4/7/2025  12:39:51.636932	-2.121086E-1
4/7/2025  12:39:51.637432	-2.163397E-1
4/7/2025  12:39:51.637932	-2.192689E-1
4/7/2025  12:39:51.638432	-2.218726E-1
4/7/2025  12:39:51.638932	-2.277310E-1
4/7/2025  12:39:51.639432	-2.342403E-1
4/7/2025  12:39:51.639932	-2.339149E-1
4/7/2025  12:39:51.640432	-2.371695E-1
4/7/2025  12:39:51.640932	-2.407497E-1
4/7/2025  12:39:51.641432	-2.407497E-1
4/7/2025  12:39:51.641932	-2.414006E-1
4/7/2025  12:39:51.642432	-2.414006E-1
4/7/2025  12:39:51.642932	-2.498627E-1
4/7/2025  12:39:51.643432	-2.566975E-1
4/7/2025  12:39:51.643932	-2.667870E-1
4/7/2025  12:39:51.644432	-2.706926E-1
4/7/2025  12:39:51.644932	-2.651596E-1
4/7/2025  12:39:51.645432	-2.648342E-1
4/7/2025  12:39:51.645932	-2.671124E-1
4/7/2025  12:39:51.646432	-2.635323E-1
4/7/2025  12:39:51.646932	-2.619050E-1
4/7/2025  12:39:51.647432	-2.609286E-1
4/7/2025  12:39:51.647932	-2.589758E-1
4/7/2025  12:39:51.648432	-2.609286E-1
4/7/2025  12:39:51.648932	-2.544193E-1
4/7/2025  12:39:51.649432	-2.518155E-1
4/7/2025  12:39:51.649932	-2.488863E-1
4/7/2025  12:39:51.650432	-2.456317E-1
4/7/2025  12:39:51.650932	-2.414006E-1
4/7/2025  12:39:51.651432	-2.404242E-1
4/7/2025  12:39:51.651932	-2.410751E-1
4/7/2025  12:39:51.652432	-2.352167E-1
4/7/2025  12:39:51.652932	-2.329385E-1
4/7/2025  12:39:51.653432	-2.257782E-1
4/7/2025  12:39:51.653932	-2.257782E-1
4/7/2025  12:39:51.654432	-2.205708E-1
4/7/2025  12:39:51.654932	-2.166652E-1
4/7/2025  12:39:51.655432	-2.111322E-1
4/7/2025  12:39:51.655932	-2.104813E-1
4/7/2025  12:39:51.656432	-2.173161E-1
4/7/2025  12:39:51.656932	-2.251273E-1
4/7/2025  12:39:51.657432	-2.244763E-1
4/7/2025  12:39:51.657932	-2.332639E-1
4/7/2025  12:39:51.658432	-2.335894E-1
4/7/2025  12:39:51.658932	-2.348913E-1
4/7/2025  12:39:51.659432	-2.394478E-1
4/7/2025  12:39:51.659932	-2.417261E-1
4/7/2025  12:39:51.660432	-2.436789E-1
4/7/2025  12:39:51.660932	-2.472590E-1
4/7/2025  12:39:51.661432	-2.475845E-1
4/7/2025  12:39:51.661932	-2.573484E-1
4/7/2025  12:39:51.662432	-2.547447E-1
4/7/2025  12:39:51.662932	-2.596267E-1
4/7/2025  12:39:51.663432	-2.615795E-1
4/7/2025  12:39:51.663932	-2.690652E-1
4/7/2025  12:39:51.664432	-2.687398E-1
4/7/2025  12:39:51.664932	-2.703671E-1
4/7/2025  12:39:51.665432	-2.687398E-1
4/7/2025  12:39:51.665932	-2.726454E-1
4/7/2025  12:39:51.666432	-2.732963E-1
4/7/2025  12:39:51.666932	-2.690652E-1
4/7/2025  12:39:51.667432	-2.684143E-1
4/7/2025  12:39:51.667932	-2.638578E-1
4/7/2025  12:39:51.668432	-2.593012E-1
4/7/2025  12:39:51.668932	-2.566975E-1
4/7/2025  12:39:51.669432	-2.550702E-1
4/7/2025  12:39:51.669932	-2.485609E-1
4/7/2025  12:39:51.670432	-2.430279E-1
4/7/2025  12:39:51.670932	-2.427025E-1
4/7/2025  12:39:51.671432	-2.427025E-1
4/7/2025  12:39:51.671932	-2.355422E-1
4/7/2025  12:39:51.672432	-2.293583E-1
4/7/2025  12:39:51.672932	-2.296838E-1
4/7/2025  12:39:51.673432	-2.238254E-1
4/7/2025  12:39:51.673932	-2.186180E-1
4/7/2025  12:39:51.674432	-2.124341E-1
4/7/2025  12:39:51.674932	-2.121086E-1
4/7/2025  12:39:51.675432	-2.075521E-1
4/7/2025  12:39:51.675932	-2.218726E-1
4/7/2025  12:39:51.676432	-2.140614E-1
4/7/2025  12:39:51.676932	-2.186180E-1
4/7/2025  12:39:51.677432	-2.241509E-1
4/7/2025  12:39:51.677932	-2.254527E-1
4/7/2025  12:39:51.678432	-2.274055E-1
4/7/2025  12:39:51.678932	-2.309857E-1
4/7/2025  12:39:51.679432	-2.339149E-1
4/7/2025  12:39:51.679932	-2.371695E-1
4/7/2025  12:39:51.680432	-2.387969E-1
4/7/2025  12:39:51.680932	-2.427025E-1
4/7/2025  12:39:51.681432	-2.550702E-1
4/7/2025  12:39:51.681932	-2.573484E-1
4/7/2025  12:39:51.682432	-2.596267E-1
4/7/2025  12:39:51.682932	-2.615795E-1
4/7/2025  12:39:51.683432	-2.589758E-1
4/7/2025  12:39:51.683932	-2.716690E-1
4/7/2025  12:39:51.684432	-2.680888E-1
4/7/2025  12:39:51.684932	-2.661360E-1
4/7/2025  12:39:51.685432	-2.664615E-1
4/7/2025  12:39:51.685932	-2.664615E-1
4/7/2025  12:39:51.686432	-2.632068E-1
4/7/2025  12:39:51.686932	-2.674379E-1
4/7/2025  12:39:51.687432	-2.645087E-1
4/7/2025  12:39:51.687932	-2.599522E-1
4/7/2025  12:39:51.688432	-2.583248E-1
4/7/2025  12:39:51.688932	-2.540938E-1
4/7/2025  12:39:51.689432	-2.531174E-1
4/7/2025  12:39:51.689932	-2.514901E-1
4/7/2025  12:39:51.690432	-2.469335E-1
4/7/2025  12:39:51.690932	-2.466081E-1
4/7/2025  12:39:51.691432	-2.453062E-1
4/7/2025  12:39:51.691932	-2.427025E-1
4/7/2025  12:39:51.692432	-2.371695E-1
4/7/2025  12:39:51.692932	-2.339149E-1
4/7/2025  12:39:51.693432	-2.348913E-1
4/7/2025  12:39:51.693932	-2.290329E-1
4/7/2025  12:39:51.694432	-2.316366E-1
4/7/2025  12:39:51.694932	-2.267546E-1
4/7/2025  12:39:51.695432	-2.205708E-1
4/7/2025  12:39:51.695932	-2.303347E-1
4/7/2025  12:39:51.696432	-2.254527E-1
4/7/2025  12:39:51.696932	-2.270801E-1
4/7/2025  12:39:51.697432	-2.316366E-1
4/7/2025  12:39:51.697932	-2.427025E-1
4/7/2025  12:39:51.698432	-2.407497E-1
4/7/2025  12:39:51.698932	-2.456317E-1
4/7/2025  12:39:51.699432	-2.443298E-1
4/7/2025  12:39:51.699932	-2.488863E-1
4/7/2025  12:39:51.700432	-2.498627E-1
4/7/2025  12:39:51.700932	-2.563720E-1
4/7/2025  12:39:51.701432	-2.544193E-1
4/7/2025  12:39:51.701932	-2.606031E-1
4/7/2025  12:39:51.702432	-2.566975E-1
4/7/2025  12:39:51.702932	-2.628814E-1
4/7/2025  12:39:51.703432	-2.687398E-1
4/7/2025  12:39:51.703932	-2.726454E-1
4/7/2025  12:39:51.704432	-2.807820E-1
4/7/2025  12:39:51.704932	-2.788292E-1
4/7/2025  12:39:51.705432	-2.781783E-1
4/7/2025  12:39:51.705932	-2.798056E-1
4/7/2025  12:39:51.706432	-2.739472E-1
4/7/2025  12:39:51.706932	-2.759000E-1
4/7/2025  12:39:51.707432	-2.713435E-1
4/7/2025  12:39:51.707932	-2.732963E-1
4/7/2025  12:39:51.708432	-2.739472E-1
4/7/2025  12:39:51.708932	-2.723199E-1
4/7/2025  12:39:51.709432	-2.661360E-1
4/7/2025  12:39:51.709932	-2.654851E-1
4/7/2025  12:39:51.710432	-2.635323E-1
4/7/2025  12:39:51.710932	-2.615795E-1
4/7/2025  12:39:51.711432	-2.589758E-1
4/7/2025  12:39:51.711932	-2.615795E-1
4/7/2025  12:39:51.712432	-2.583248E-1
4/7/2025  12:39:51.712932	-2.518155E-1
4/7/2025  12:39:51.713432	-2.498627E-1
4/7/2025  12:39:51.713932	-2.446553E-1
4/7/2025  12:39:51.714432	-2.414006E-1
4/7/2025  12:39:51.714932	-2.391223E-1
4/7/2025  12:39:51.715432	-2.365186E-1
4/7/2025  12:39:51.715932	-2.381459E-1
4/7/2025  12:39:51.716432	-2.358677E-1
4/7/2025  12:39:51.716932	-2.456317E-1
4/7/2025  12:39:51.717432	-2.521410E-1
4/7/2025  12:39:51.717932	-2.544193E-1
4/7/2025  12:39:51.718432	-2.596267E-1
4/7/2025  12:39:51.718932	-2.612540E-1
4/7/2025  12:39:51.719432	-2.680888E-1
4/7/2025  12:39:51.719932	-2.677634E-1
4/7/2025  12:39:51.720432	-2.687398E-1
4/7/2025  12:39:51.720932	-2.716690E-1
4/7/2025  12:39:51.721432	-2.752491E-1
4/7/2025  12:39:51.721932	-2.898951E-1
4/7/2025  12:39:51.722432	-2.817584E-1
4/7/2025  12:39:51.722932	-2.889187E-1
4/7/2025  12:39:51.723432	-2.859895E-1
4/7/2025  12:39:51.723932	-3.009609E-1
4/7/2025  12:39:51.724432	-2.960789E-1
4/7/2025  12:39:51.724932	-2.934752E-1
4/7/2025  12:39:51.725432	-2.957535E-1
4/7/2025  12:39:51.725932	-3.025883E-1
4/7/2025  12:39:51.726432	-2.967299E-1
4/7/2025  12:39:51.726932	-2.967299E-1
4/7/2025  12:39:51.727432	-2.960789E-1
4/7/2025  12:39:51.727932	-2.908715E-1
4/7/2025  12:39:51.728432	-2.879423E-1
4/7/2025  12:39:51.728932	-2.830603E-1
4/7/2025  12:39:51.729432	-2.781783E-1
4/7/2025  12:39:51.729932	-2.814330E-1
4/7/2025  12:39:51.730432	-2.716690E-1
4/7/2025  12:39:51.730932	-2.755746E-1
4/7/2025  12:39:51.731432	-2.706926E-1
4/7/2025  12:39:51.731932	-2.713435E-1
4/7/2025  12:39:51.732432	-2.667870E-1
4/7/2025  12:39:51.732932	-2.635323E-1
4/7/2025  12:39:51.733432	-2.622304E-1
4/7/2025  12:39:51.733932	-2.576739E-1
4/7/2025  12:39:51.734432	-2.466081E-1
4/7/2025  12:39:51.734932	-2.430279E-1
4/7/2025  12:39:51.735432	-2.446553E-1
4/7/2025  12:39:51.735932	-2.469335E-1
4/7/2025  12:39:51.736432	-2.593012E-1
4/7/2025  12:39:51.736932	-2.537683E-1
4/7/2025  12:39:51.737432	-2.570230E-1
4/7/2025  12:39:51.737932	-2.606031E-1
4/7/2025  12:39:51.738432	-2.602776E-1
4/7/2025  12:39:51.738932	-2.615795E-1
4/7/2025  12:39:51.739432	-2.635323E-1
4/7/2025  12:39:51.739932	-2.667870E-1
4/7/2025  12:39:51.740432	-2.736218E-1
4/7/2025  12:39:51.740932	-2.749236E-1
4/7/2025  12:39:51.741432	-2.710180E-1
4/7/2025  12:39:51.741932	-2.759000E-1
4/7/2025  12:39:51.742432	-2.785038E-1
4/7/2025  12:39:51.742932	-2.863150E-1
4/7/2025  12:39:51.743432	-2.876168E-1
4/7/2025  12:39:51.743932	-2.938007E-1
4/7/2025  12:39:51.744432	-2.931497E-1
4/7/2025  12:39:51.744932	-2.983572E-1
4/7/2025  12:39:51.745432	-3.012864E-1
4/7/2025  12:39:51.745932	-3.003100E-1
4/7/2025  12:39:51.746432	-2.938007E-1
4/7/2025  12:39:51.746932	-2.944516E-1
4/7/2025  12:39:51.747432	-2.918479E-1
4/7/2025  12:39:51.747932	-2.869659E-1
4/7/2025  12:39:51.748432	-2.820839E-1
4/7/2025  12:39:51.748932	-2.785038E-1
4/7/2025  12:39:51.749432	-2.762255E-1
4/7/2025  12:39:51.749932	-2.745982E-1
4/7/2025  12:39:51.750432	-2.713435E-1
4/7/2025  12:39:51.750932	-2.697162E-1
4/7/2025  12:39:51.751432	-2.690652E-1
4/7/2025  12:39:51.751932	-2.645087E-1
4/7/2025  12:39:51.752432	-2.599522E-1
4/7/2025  12:39:51.752932	-2.518155E-1
4/7/2025  12:39:51.753432	-2.475845E-1
4/7/2025  12:39:51.753932	-2.462826E-1
4/7/2025  12:39:51.754432	-2.459571E-1
4/7/2025  12:39:51.754932	-2.495373E-1
4/7/2025  12:39:51.755432	-2.391223E-1
4/7/2025  12:39:51.755932	-2.397733E-1
4/7/2025  12:39:51.756432	-2.446553E-1
4/7/2025  12:39:51.756932	-2.495373E-1
4/7/2025  12:39:51.757432	-2.540938E-1
4/7/2025  12:39:51.757932	-2.540938E-1
4/7/2025  12:39:51.758432	-2.550702E-1
4/7/2025  12:39:51.758932	-2.589758E-1
4/7/2025  12:39:51.759432	-2.619050E-1
4/7/2025  12:39:51.759932	-2.687398E-1
4/7/2025  12:39:51.760432	-2.742727E-1
4/7/2025  12:39:51.760932	-2.726454E-1
4/7/2025  12:39:51.761432	-2.693907E-1
4/7/2025  12:39:51.761932	-2.762255E-1
4/7/2025  12:39:51.762432	-2.905460E-1
4/7/2025  12:39:51.762932	-2.843622E-1
4/7/2025  12:39:51.763432	-2.837112E-1
4/7/2025  12:39:51.763932	-2.964044E-1
4/7/2025  12:39:51.764432	-2.938007E-1
4/7/2025  12:39:51.764932	-3.022628E-1
4/7/2025  12:39:51.765432	-2.986827E-1
4/7/2025  12:39:51.765932	-2.993336E-1
4/7/2025  12:39:51.766432	-2.947771E-1
4/7/2025  12:39:51.766932	-2.983572E-1
4/7/2025  12:39:51.767432	-2.924988E-1
4/7/2025  12:39:51.767932	-2.889187E-1
4/7/2025  12:39:51.768432	-2.866404E-1
4/7/2025  12:39:51.768932	-2.801311E-1
4/7/2025  12:39:51.769432	-2.765510E-1
4/7/2025  12:39:51.769932	-2.772019E-1
4/7/2025  12:39:51.770432	-2.765510E-1
4/7/2025  12:39:51.770932	-2.716690E-1
4/7/2025  12:39:51.771432	-2.732963E-1
4/7/2025  12:39:51.771932	-2.684143E-1
4/7/2025  12:39:51.772432	-2.651596E-1
4/7/2025  12:39:51.772932	-2.599522E-1
4/7/2025  12:39:51.773432	-2.540938E-1
4/7/2025  12:39:51.773932	-2.475845E-1
4/7/2025  12:39:51.774432	-2.547447E-1
4/7/2025  12:39:51.774932	-2.488863E-1
4/7/2025  12:39:51.775432	-2.514901E-1
4/7/2025  12:39:51.775932	-2.459571E-1
4/7/2025  12:39:51.776432	-2.469335E-1
4/7/2025  12:39:51.776932	-2.501882E-1
4/7/2025  12:39:51.777432	-2.531174E-1
4/7/2025  12:39:51.777932	-2.531174E-1
4/7/2025  12:39:51.778432	-2.576739E-1
4/7/2025  12:39:51.778932	-2.579994E-1
4/7/2025  12:39:51.779432	-2.632068E-1
4/7/2025  12:39:51.779932	-2.684143E-1
4/7/2025  12:39:51.780432	-2.703671E-1
4/7/2025  12:39:51.780932	-2.729708E-1
4/7/2025  12:39:51.781432	-2.765510E-1
4/7/2025  12:39:51.781932	-2.817584E-1
4/7/2025  12:39:51.782432	-2.785038E-1
4/7/2025  12:39:51.782932	-2.824094E-1
4/7/2025  12:39:51.783432	-2.846876E-1
4/7/2025  12:39:51.783932	-2.905460E-1
4/7/2025  12:39:51.784432	-2.947771E-1
4/7/2025  12:39:51.784932	-2.921733E-1
4/7/2025  12:39:51.785432	-2.941261E-1
4/7/2025  12:39:51.785932	-2.921733E-1
4/7/2025  12:39:51.786432	-2.980317E-1
4/7/2025  12:39:51.786932	-2.905460E-1
4/7/2025  12:39:51.787432	-2.892441E-1
4/7/2025  12:39:51.787932	-2.859895E-1
4/7/2025  12:39:51.788432	-2.817584E-1
4/7/2025  12:39:51.788932	-2.785038E-1
4/7/2025  12:39:51.789432	-2.807820E-1
4/7/2025  12:39:51.789932	-2.729708E-1
4/7/2025  12:39:51.790432	-2.742727E-1
4/7/2025  12:39:51.790932	-2.697162E-1
4/7/2025  12:39:51.791432	-2.700416E-1
4/7/2025  12:39:51.791932	-2.664615E-1
4/7/2025  12:39:51.792432	-2.615795E-1
4/7/2025  12:39:51.792932	-2.593012E-1
4/7/2025  12:39:51.793432	-2.527919E-1
4/7/2025  12:39:51.793932	-2.540938E-1
4/7/2025  12:39:51.794432	-2.453062E-1
4/7/2025  12:39:51.794932	-2.462826E-1
4/7/2025  12:39:51.795432	-2.453062E-1
4/7/2025  12:39:51.795932	-2.544193E-1
4/7/2025  12:39:51.796432	-2.472590E-1
4/7/2025  12:39:51.796932	-2.531174E-1
4/7/2025  12:39:51.797432	-2.482354E-1
4/7/2025  12:39:51.797932	-2.550702E-1
4/7/2025  12:39:51.798432	-2.599522E-1
4/7/2025  12:39:51.798932	-2.625559E-1
4/7/2025  12:39:51.799432	-2.671124E-1
4/7/2025  12:39:51.799932	-2.690652E-1
4/7/2025  12:39:51.800432	-2.719944E-1
4/7/2025  12:39:51.800932	-2.729708E-1
4/7/2025  12:39:51.801432	-2.755746E-1
4/7/2025  12:39:51.801932	-2.759000E-1
4/7/2025  12:39:51.802432	-2.869659E-1
4/7/2025  12:39:51.802932	-2.772019E-1
4/7/2025  12:39:51.803432	-2.843622E-1
4/7/2025  12:39:51.803932	-2.876168E-1
4/7/2025  12:39:51.804432	-2.941261E-1
4/7/2025  12:39:51.804932	-2.967299E-1
4/7/2025  12:39:51.805432	-2.964044E-1
4/7/2025  12:39:51.805932	-2.898951E-1
4/7/2025  12:39:51.806432	-3.003100E-1
4/7/2025  12:39:51.806932	-2.895696E-1
4/7/2025  12:39:51.807432	-2.889187E-1
4/7/2025  12:39:51.807932	-2.840367E-1
4/7/2025  12:39:51.808432	-2.830603E-1
4/7/2025  12:39:51.808932	-2.801311E-1
4/7/2025  12:39:51.809432	-2.785038E-1
4/7/2025  12:39:51.809932	-2.752491E-1
4/7/2025  12:39:51.810432	-2.749236E-1
4/7/2025  12:39:51.810932	-2.726454E-1
4/7/2025  12:39:51.811432	-2.661360E-1
4/7/2025  12:39:51.811932	-2.632068E-1
4/7/2025  12:39:51.812432	-2.596267E-1
4/7/2025  12:39:51.812932	-2.534429E-1
4/7/2025  12:39:51.813432	-2.514901E-1
4/7/2025  12:39:51.813932	-2.534429E-1
4/7/2025  12:39:51.814432	-2.394478E-1
4/7/2025  12:39:51.814932	-2.400987E-1
4/7/2025  12:39:51.815432	-2.531174E-1
4/7/2025  12:39:51.815932	-2.423770E-1
4/7/2025  12:39:51.816432	-2.436789E-1
4/7/2025  12:39:51.816932	-2.498627E-1
4/7/2025  12:39:51.817432	-2.501882E-1
4/7/2025  12:39:51.817932	-2.563720E-1
4/7/2025  12:39:51.818432	-2.573484E-1
4/7/2025  12:39:51.818932	-2.622304E-1
4/7/2025  12:39:51.819432	-2.635323E-1
4/7/2025  12:39:51.819932	-2.671124E-1
4/7/2025  12:39:51.820432	-2.677634E-1
4/7/2025  12:39:51.820932	-2.716690E-1
4/7/2025  12:39:51.821432	-2.791547E-1
4/7/2025  12:39:51.821932	-2.697162E-1
4/7/2025  12:39:51.822432	-2.726454E-1
4/7/2025  12:39:51.822932	-2.837112E-1
4/7/2025  12:39:51.823432	-2.837112E-1
4/7/2025  12:39:51.823932	-2.938007E-1
4/7/2025  12:39:51.824432	-2.892441E-1
4/7/2025  12:39:51.824932	-2.947771E-1
4/7/2025  12:39:51.825432	-3.006355E-1
4/7/2025  12:39:51.825932	-2.957535E-1
4/7/2025  12:39:51.826432	-3.003100E-1
4/7/2025  12:39:51.826932	-2.856640E-1
4/7/2025  12:39:51.827432	-2.850131E-1
4/7/2025  12:39:51.827932	-2.830603E-1
4/7/2025  12:39:51.828432	-2.801311E-1
4/7/2025  12:39:51.828932	-2.785038E-1
4/7/2025  12:39:51.829432	-2.788292E-1
4/7/2025  12:39:51.829932	-2.726454E-1
4/7/2025  12:39:51.830432	-2.726454E-1
4/7/2025  12:39:51.830932	-2.674379E-1
4/7/2025  12:39:51.831432	-2.625559E-1
4/7/2025  12:39:51.831932	-2.593012E-1
4/7/2025  12:39:51.832432	-2.619050E-1
4/7/2025  12:39:51.832932	-2.570230E-1
4/7/2025  12:39:51.833432	-2.521410E-1
4/7/2025  12:39:51.833932	-2.485609E-1
4/7/2025  12:39:51.834432	-2.459571E-1
4/7/2025  12:39:51.834932	-2.488863E-1
4/7/2025  12:39:51.835432	-2.505137E-1
4/7/2025  12:39:51.835932	-2.524665E-1
4/7/2025  12:39:51.836432	-2.446553E-1
4/7/2025  12:39:51.836932	-2.514901E-1
4/7/2025  12:39:51.837432	-2.511646E-1
4/7/2025  12:39:51.837932	-2.566975E-1
4/7/2025  12:39:51.838432	-2.599522E-1
4/7/2025  12:39:51.838932	-2.638578E-1
4/7/2025  12:39:51.839432	-2.693907E-1
4/7/2025  12:39:51.839932	-2.677634E-1
4/7/2025  12:39:51.840432	-2.732963E-1
4/7/2025  12:39:51.840932	-2.742727E-1
4/7/2025  12:39:51.841432	-2.739472E-1
4/7/2025  12:39:51.841932	-2.778528E-1
4/7/2025  12:39:51.842432	-2.804566E-1
4/7/2025  12:39:51.842932	-2.801311E-1
4/7/2025  12:39:51.843432	-2.934752E-1
4/7/2025  12:39:51.843932	-2.957535E-1
4/7/2025  12:39:51.844432	-2.964044E-1
4/7/2025  12:39:51.844932	-3.029137E-1
4/7/2025  12:39:51.845432	-2.970553E-1
4/7/2025  12:39:51.845932	-3.029137E-1
4/7/2025  12:39:51.846432	-2.993336E-1
4/7/2025  12:39:51.846932	-2.938007E-1
4/7/2025  12:39:51.847432	-2.915224E-1
4/7/2025  12:39:51.847932	-2.911969E-1
4/7/2025  12:39:51.848432	-2.853386E-1
4/7/2025  12:39:51.848932	-2.817584E-1
4/7/2025  12:39:51.849432	-2.807820E-1
4/7/2025  12:39:51.849932	-2.791547E-1
4/7/2025  12:39:51.850432	-2.762255E-1
4/7/2025  12:39:51.850932	-2.716690E-1
4/7/2025  12:39:51.851432	-2.742727E-1
4/7/2025  12:39:51.851932	-2.719944E-1
4/7/2025  12:39:51.852432	-2.641832E-1
4/7/2025  12:39:51.852932	-2.612540E-1
4/7/2025  12:39:51.853432	-2.557211E-1
4/7/2025  12:39:51.853932	-2.482354E-1
4/7/2025  12:39:51.854432	-2.508391E-1
4/7/2025  12:39:51.854932	-2.495373E-1
4/7/2025  12:39:51.855432	-2.492118E-1
4/7/2025  12:39:51.855932	-2.547447E-1
4/7/2025  12:39:51.856432	-2.498627E-1
4/7/2025  12:39:51.856932	-2.531174E-1
4/7/2025  12:39:51.857432	-2.544193E-1
4/7/2025  12:39:51.857932	-2.596267E-1
4/7/2025  12:39:51.858432	-2.596267E-1
4/7/2025  12:39:51.858932	-2.625559E-1
4/7/2025  12:39:51.859432	-2.628814E-1
4/7/2025  12:39:51.859932	-2.632068E-1
4/7/2025  12:39:51.860432	-2.661360E-1
4/7/2025  12:39:51.860932	-2.716690E-1
4/7/2025  12:39:51.861432	-2.781783E-1
4/7/2025  12:39:51.861932	-2.765510E-1
4/7/2025  12:39:51.862432	-2.833858E-1
4/7/2025  12:39:51.862932	-2.817584E-1
4/7/2025  12:39:51.863432	-2.905460E-1
4/7/2025  12:39:51.863932	-2.889187E-1
4/7/2025  12:39:51.864432	-2.908715E-1
4/7/2025  12:39:51.864932	-2.928243E-1
4/7/2025  12:39:51.865432	-2.911969E-1
4/7/2025  12:39:51.865932	-2.931497E-1
4/7/2025  12:39:51.866432	-2.898951E-1
4/7/2025  12:39:51.866932	-2.915224E-1
4/7/2025  12:39:51.867432	-2.918479E-1
4/7/2025  12:39:51.867932	-2.846876E-1
4/7/2025  12:39:51.868432	-2.840367E-1
4/7/2025  12:39:51.868932	-2.804566E-1
4/7/2025  12:39:51.869432	-2.772019E-1
4/7/2025  12:39:51.869932	-2.732963E-1
4/7/2025  12:39:51.870432	-2.703671E-1
4/7/2025  12:39:51.870932	-2.693907E-1
4/7/2025  12:39:51.871432	-2.680888E-1
4/7/2025  12:39:51.871932	-2.648342E-1
4/7/2025  12:39:51.872432	-2.628814E-1
4/7/2025  12:39:51.872932	-2.570230E-1
4/7/2025  12:39:51.873432	-2.537683E-1
4/7/2025  12:39:51.873932	-2.501882E-1
4/7/2025  12:39:51.874432	-2.550702E-1
4/7/2025  12:39:51.874932	-2.482354E-1
4/7/2025  12:39:51.875432	-2.524665E-1
4/7/2025  12:39:51.875932	-2.456317E-1
4/7/2025  12:39:51.876432	-2.472590E-1
4/7/2025  12:39:51.876932	-2.456317E-1
4/7/2025  12:39:51.877432	-2.498627E-1
4/7/2025  12:39:51.877932	-2.547447E-1
4/7/2025  12:39:51.878432	-2.573484E-1
4/7/2025  12:39:51.878932	-2.619050E-1
4/7/2025  12:39:51.879432	-2.612540E-1
4/7/2025  12:39:51.879932	-2.651596E-1
4/7/2025  12:39:51.880432	-2.719944E-1
4/7/2025  12:39:51.880932	-2.732963E-1
4/7/2025  12:39:51.881432	-2.729708E-1
4/7/2025  12:39:51.881932	-2.739472E-1
4/7/2025  12:39:51.882432	-2.723199E-1
4/7/2025  12:39:51.882932	-2.869659E-1
4/7/2025  12:39:51.883432	-2.853386E-1
4/7/2025  12:39:51.883932	-2.882678E-1
4/7/2025  12:39:51.884432	-2.902205E-1
4/7/2025  12:39:51.884932	-3.003100E-1
4/7/2025  12:39:51.885432	-2.973808E-1
4/7/2025  12:39:51.885932	-3.019373E-1
4/7/2025  12:39:51.886432	-2.970553E-1
4/7/2025  12:39:51.886932	-2.905460E-1
4/7/2025  12:39:51.887432	-2.885932E-1
4/7/2025  12:39:51.887932	-2.850131E-1
4/7/2025  12:39:51.888432	-2.824094E-1
4/7/2025  12:39:51.888932	-2.846876E-1
4/7/2025  12:39:51.889432	-2.801311E-1
4/7/2025  12:39:51.889932	-2.798056E-1
4/7/2025  12:39:51.890432	-2.788292E-1
4/7/2025  12:39:51.890932	-2.745982E-1
4/7/2025  12:39:51.891432	-2.710180E-1
4/7/2025  12:39:51.891932	-2.703671E-1
4/7/2025  12:39:51.892432	-2.677634E-1
4/7/2025  12:39:51.892932	-2.609286E-1
4/7/2025  12:39:51.893432	-2.586503E-1
4/7/2025  12:39:51.893932	-2.524665E-1
4/7/2025  12:39:51.894432	-2.540938E-1
4/7/2025  12:39:51.894932	-2.462826E-1
4/7/2025  12:39:51.895432	-2.449807E-1
4/7/2025  12:39:51.895932	-2.570230E-1
4/7/2025  12:39:51.896432	-2.518155E-1
4/7/2025  12:39:51.896932	-2.514901E-1
4/7/2025  12:39:51.897432	-2.566975E-1
4/7/2025  12:39:51.897932	-2.563720E-1
4/7/2025  12:39:51.898432	-2.602776E-1
4/7/2025  12:39:51.898932	-2.615795E-1
4/7/2025  12:39:51.899432	-2.622304E-1
4/7/2025  12:39:51.899932	-2.661360E-1
4/7/2025  12:39:51.900432	-2.716690E-1
4/7/2025  12:39:51.900932	-2.732963E-1
4/7/2025  12:39:51.901432	-2.664615E-1
4/7/2025  12:39:51.901932	-2.794802E-1
4/7/2025  12:39:51.902432	-2.876168E-1
4/7/2025  12:39:51.902932	-2.850131E-1
4/7/2025  12:39:51.903432	-2.879423E-1
4/7/2025  12:39:51.903932	-2.911969E-1
4/7/2025  12:39:51.904432	-2.944516E-1
4/7/2025  12:39:51.904932	-2.911969E-1
4/7/2025  12:39:51.905432	-3.019373E-1
4/7/2025  12:39:51.905932	-2.980317E-1
4/7/2025  12:39:51.906432	-2.911969E-1
4/7/2025  12:39:51.906932	-2.921733E-1
4/7/2025  12:39:51.907432	-2.905460E-1
4/7/2025  12:39:51.907932	-2.869659E-1
4/7/2025  12:39:51.908432	-2.833858E-1
4/7/2025  12:39:51.908932	-2.798056E-1
4/7/2025  12:39:51.909432	-2.765510E-1
4/7/2025  12:39:51.909932	-2.732963E-1
4/7/2025  12:39:51.910432	-2.697162E-1
4/7/2025  12:39:51.910932	-2.687398E-1
4/7/2025  12:39:51.911432	-2.690652E-1
4/7/2025  12:39:51.911932	-2.648342E-1
4/7/2025  12:39:51.912432	-2.612540E-1
4/7/2025  12:39:51.912932	-2.589758E-1
4/7/2025  12:39:51.913432	-2.521410E-1
4/7/2025  12:39:51.913932	-2.521410E-1
4/7/2025  12:39:51.914432	-2.462826E-1
4/7/2025  12:39:51.914932	-2.420515E-1
4/7/2025  12:39:51.915432	-2.440043E-1
4/7/2025  12:39:51.915932	-2.378205E-1
4/7/2025  12:39:51.916432	-2.365186E-1
4/7/2025  12:39:51.916932	-2.427025E-1
4/7/2025  12:39:51.917432	-2.472590E-1
4/7/2025  12:39:51.917932	-2.550702E-1
4/7/2025  12:39:51.918432	-2.540938E-1
4/7/2025  12:39:51.918932	-2.553957E-1
4/7/2025  12:39:51.919432	-2.615795E-1
4/7/2025  12:39:51.919932	-2.586503E-1
4/7/2025  12:39:51.920432	-2.658106E-1
