waveform	Ch0	
t0	4/7/2025  12:44:44.915300	
delta t	0.000500	

time[0]	Ch0
4/7/2025  12:44:44.915300	-1.408315E-1
4/7/2025  12:44:44.915800	-1.359495E-1
4/7/2025  12:44:44.916300	-1.307420E-1
4/7/2025  12:44:44.916800	-1.304166E-1
4/7/2025  12:44:44.917300	-1.278128E-1
4/7/2025  12:44:44.917800	-1.248837E-1
4/7/2025  12:44:44.918300	-1.265110E-1
4/7/2025  12:44:44.918800	-1.206526E-1
4/7/2025  12:44:44.919300	-1.196762E-1
4/7/2025  12:44:44.919800	-1.177234E-1
4/7/2025  12:44:44.920300	-1.105631E-1
4/7/2025  12:44:44.920800	-1.066575E-1
4/7/2025  12:44:44.921300	-1.170725E-1
4/7/2025  12:44:44.921800	-1.034029E-1
4/7/2025  12:44:44.922300	-9.884635E-2
4/7/2025  12:44:44.922800	-1.001482E-1
4/7/2025  12:44:44.923300	-9.298795E-2
4/7/2025  12:44:44.923800	-8.289850E-2
4/7/2025  12:44:44.924300	-8.192210E-2
4/7/2025  12:44:44.924800	-8.712956E-2
4/7/2025  12:44:44.925300	-8.973329E-2
4/7/2025  12:44:44.925800	-9.103515E-2
4/7/2025  12:44:44.926300	-9.005875E-2
4/7/2025  12:44:44.926800	-9.526622E-2
4/7/2025  12:44:44.927300	-1.021010E-1
4/7/2025  12:44:44.927800	-1.011246E-1
4/7/2025  12:44:44.928300	-1.066575E-1
4/7/2025  12:44:44.928800	-1.069830E-1
4/7/2025  12:44:44.929300	-1.105631E-1
4/7/2025  12:44:44.929800	-1.151197E-1
4/7/2025  12:44:44.930300	-1.099122E-1
4/7/2025  12:44:44.930800	-1.069830E-1
4/7/2025  12:44:44.931300	-1.229309E-1
4/7/2025  12:44:44.931800	-1.245582E-1
4/7/2025  12:44:44.932300	-1.297656E-1
4/7/2025  12:44:44.932800	-1.359495E-1
4/7/2025  12:44:44.933300	-1.356240E-1
4/7/2025  12:44:44.933800	-1.349731E-1
4/7/2025  12:44:44.934300	-1.385532E-1
4/7/2025  12:44:44.934800	-1.372514E-1
4/7/2025  12:44:44.935300	-1.235818E-1
4/7/2025  12:44:44.935800	-1.411570E-1
4/7/2025  12:44:44.936300	-1.333458E-1
4/7/2025  12:44:44.936800	-1.300911E-1
4/7/2025  12:44:44.937300	-1.287892E-1
4/7/2025  12:44:44.937800	-1.284638E-1
4/7/2025  12:44:44.938300	-1.213035E-1
4/7/2025  12:44:44.938800	-1.200017E-1
4/7/2025  12:44:44.939300	-1.157706E-1
4/7/2025  12:44:44.939800	-1.125159E-1
4/7/2025  12:44:44.940300	-1.086103E-1
4/7/2025  12:44:44.940800	-1.082849E-1
4/7/2025  12:44:44.941300	-1.014501E-1
4/7/2025  12:44:44.941800	-9.363888E-2
4/7/2025  12:44:44.942300	-1.050302E-1
4/7/2025  12:44:44.942800	-9.331342E-2
4/7/2025  12:44:44.943300	-8.875689E-2
4/7/2025  12:44:44.943800	-8.029476E-2
4/7/2025  12:44:44.944300	-7.476184E-2
4/7/2025  12:44:44.944800	-7.996930E-2
4/7/2025  12:44:44.945300	-8.615316E-2
4/7/2025  12:44:44.945800	-9.005875E-2
4/7/2025  12:44:44.946300	-9.363888E-2
4/7/2025  12:44:44.946800	-9.331342E-2
4/7/2025  12:44:44.947300	-9.917181E-2
4/7/2025  12:44:44.947800	-1.014501E-1
4/7/2025  12:44:44.948300	-1.017755E-1
4/7/2025  12:44:44.948800	-1.034029E-1
4/7/2025  12:44:44.949300	-1.180489E-1
4/7/2025  12:44:44.949800	-1.060066E-1
4/7/2025  12:44:44.950300	-1.154451E-1
4/7/2025  12:44:44.950800	-1.190253E-1
4/7/2025  12:44:44.951300	-1.330203E-1
4/7/2025  12:44:44.951800	-1.284638E-1
4/7/2025  12:44:44.952300	-1.356240E-1
4/7/2025  12:44:44.952800	-1.330203E-1
4/7/2025  12:44:44.953300	-1.414824E-1
4/7/2025  12:44:44.953800	-1.349731E-1
4/7/2025  12:44:44.954300	-1.466899E-1
4/7/2025  12:44:44.954800	-1.408315E-1
4/7/2025  12:44:44.955300	-1.385532E-1
4/7/2025  12:44:44.955800	-1.362750E-1
4/7/2025  12:44:44.956300	-1.352986E-1
4/7/2025  12:44:44.956800	-1.395296E-1
4/7/2025  12:44:44.957300	-1.271619E-1
4/7/2025  12:44:44.957800	-1.232563E-1
4/7/2025  12:44:44.958300	-1.235818E-1
4/7/2025  12:44:44.958800	-1.183743E-1
4/7/2025  12:44:44.959300	-1.200017E-1
4/7/2025  12:44:44.959800	-1.131669E-1
4/7/2025  12:44:44.960300	-1.118650E-1
4/7/2025  12:44:44.960800	-1.089358E-1
4/7/2025  12:44:44.961300	-1.043793E-1
4/7/2025  12:44:44.961800	-1.001482E-1
4/7/2025  12:44:44.962300	-8.940782E-2
4/7/2025  12:44:44.962800	-8.745502E-2
4/7/2025  12:44:44.963300	-9.363888E-2
4/7/2025  12:44:44.963800	-9.494075E-2
4/7/2025  12:44:44.964300	-1.037283E-1
4/7/2025  12:44:44.964800	-9.103515E-2
4/7/2025  12:44:44.965300	-8.680409E-2
4/7/2025  12:44:44.965800	-9.136062E-2
4/7/2025  12:44:44.966300	-9.233702E-2
4/7/2025  12:44:44.966800	-9.917181E-2
4/7/2025  12:44:44.967300	-9.559168E-2
4/7/2025  12:44:44.967800	-9.689355E-2
4/7/2025  12:44:44.968300	-1.004737E-1
4/7/2025  12:44:44.968800	-1.076339E-1
4/7/2025  12:44:44.969300	-1.102377E-1
4/7/2025  12:44:44.969800	-1.102377E-1
4/7/2025  12:44:44.970300	-1.105631E-1
4/7/2025  12:44:44.970800	-1.144687E-1
4/7/2025  12:44:44.971300	-1.206526E-1
4/7/2025  12:44:44.971800	-1.245582E-1
4/7/2025  12:44:44.972300	-1.252091E-1
4/7/2025  12:44:44.972800	-1.310675E-1
4/7/2025  12:44:44.973300	-1.258601E-1
4/7/2025  12:44:44.973800	-1.339967E-1
4/7/2025  12:44:44.974300	-1.418079E-1
4/7/2025  12:44:44.974800	-1.479918E-1
4/7/2025  12:44:44.975300	-1.300911E-1
4/7/2025  12:44:44.975800	-1.284638E-1
4/7/2025  12:44:44.976300	-1.349731E-1
4/7/2025  12:44:44.976800	-1.226054E-1
4/7/2025  12:44:44.977300	-1.193507E-1
4/7/2025  12:44:44.977800	-1.112141E-1
4/7/2025  12:44:44.978300	-1.125159E-1
4/7/2025  12:44:44.978800	-1.099122E-1
4/7/2025  12:44:44.979300	-1.053557E-1
4/7/2025  12:44:44.979800	-9.689355E-2
4/7/2025  12:44:44.980300	-9.689355E-2
4/7/2025  12:44:44.980800	-9.363888E-2
4/7/2025  12:44:44.981300	-8.810596E-2
4/7/2025  12:44:44.981800	-9.428982E-2
4/7/2025  12:44:44.982300	-8.094570E-2
4/7/2025  12:44:44.982800	-8.420036E-2
4/7/2025  12:44:44.983300	-7.150717E-2
4/7/2025  12:44:44.983800	-6.532331E-2
4/7/2025  12:44:44.984300	-7.248357E-2
4/7/2025  12:44:44.984800	-6.825251E-2
4/7/2025  12:44:44.985300	-7.443637E-2
4/7/2025  12:44:44.985800	-7.248357E-2
4/7/2025  12:44:44.986300	-7.704010E-2
4/7/2025  12:44:44.986800	-7.834197E-2
4/7/2025  12:44:44.987300	-7.964383E-2
4/7/2025  12:44:44.987800	-8.452583E-2
4/7/2025  12:44:44.988300	-8.224756E-2
4/7/2025  12:44:44.988800	-8.582769E-2
4/7/2025  12:44:44.989300	-8.973329E-2
4/7/2025  12:44:44.989800	-9.559168E-2
4/7/2025  12:44:44.990300	-9.266249E-2
4/7/2025  12:44:44.990800	-9.591715E-2
4/7/2025  12:44:44.991300	-1.001482E-1
4/7/2025  12:44:44.991800	-1.060066E-1
4/7/2025  12:44:44.992300	-1.076339E-1
4/7/2025  12:44:44.992800	-1.108886E-1
4/7/2025  12:44:44.993300	-1.141433E-1
4/7/2025  12:44:44.993800	-1.193507E-1
4/7/2025  12:44:44.994300	-1.219545E-1
4/7/2025  12:44:44.994800	-1.141433E-1
4/7/2025  12:44:44.995300	-1.138178E-1
4/7/2025  12:44:44.995800	-1.183743E-1
4/7/2025  12:44:44.996300	-1.118650E-1
4/7/2025  12:44:44.996800	-1.102377E-1
4/7/2025  12:44:44.997300	-1.050302E-1
4/7/2025  12:44:44.997800	-1.007991E-1
4/7/2025  12:44:44.998300	-1.004737E-1
4/7/2025  12:44:44.998800	-1.021010E-1
4/7/2025  12:44:44.999300	-9.233702E-2
4/7/2025  12:44:44.999800	-9.428982E-2
4/7/2025  12:44:45.000300	-9.201155E-2
4/7/2025  12:44:45.000800	-8.452583E-2
4/7/2025  12:44:45.001300	-8.127116E-2
4/7/2025  12:44:45.001800	-7.183264E-2
4/7/2025  12:44:45.002300	-6.206865E-2
4/7/2025  12:44:45.002800	-6.206865E-2
4/7/2025  12:44:45.003300	-5.588479E-2
4/7/2025  12:44:45.003800	-5.165373E-2
4/7/2025  12:44:45.004300	-5.490839E-2
4/7/2025  12:44:45.004800	-5.523386E-2
4/7/2025  12:44:45.005300	-5.490839E-2
4/7/2025  12:44:45.005800	-6.271958E-2
4/7/2025  12:44:45.006300	-6.109225E-2
4/7/2025  12:44:45.006800	-6.109225E-2
4/7/2025  12:44:45.007300	-6.141772E-2
4/7/2025  12:44:45.007800	-5.979039E-2
4/7/2025  12:44:45.008300	-5.816305E-2
4/7/2025  12:44:45.008800	-5.913945E-2
4/7/2025  12:44:45.009300	-5.979039E-2
4/7/2025  12:44:45.009800	-6.564878E-2
4/7/2025  12:44:45.010300	-6.467238E-2
4/7/2025  12:44:45.010800	-6.271958E-2
4/7/2025  12:44:45.011300	-7.280904E-2
4/7/2025  12:44:45.011800	-7.899290E-2
4/7/2025  12:44:45.012300	-7.801650E-2
4/7/2025  12:44:45.012800	-8.615316E-2
4/7/2025  12:44:45.013300	-9.494075E-2
4/7/2025  12:44:45.013800	-8.810596E-2
4/7/2025  12:44:45.014300	-9.494075E-2
4/7/2025  12:44:45.014800	-8.843142E-2
4/7/2025  12:44:45.015300	-9.819541E-2
4/7/2025  12:44:45.015800	-8.550223E-2
4/7/2025  12:44:45.016300	-7.834197E-2
4/7/2025  12:44:45.016800	-7.671463E-2
4/7/2025  12:44:45.017300	-7.866743E-2
4/7/2025  12:44:45.017800	-7.248357E-2
4/7/2025  12:44:45.018300	-7.378544E-2
4/7/2025  12:44:45.018800	-6.890344E-2
4/7/2025  12:44:45.019300	-6.532331E-2
4/7/2025  12:44:45.019800	-6.532331E-2
4/7/2025  12:44:45.020300	-5.067733E-2
4/7/2025  12:44:45.020800	-5.100279E-2
4/7/2025  12:44:45.021300	-4.970093E-2
4/7/2025  12:44:45.021800	-4.416800E-2
4/7/2025  12:44:45.022300	-3.472948E-2
4/7/2025  12:44:45.022800	-3.375308E-2
4/7/2025  12:44:45.023300	-3.212575E-2
4/7/2025  12:44:45.023800	-4.319160E-2
4/7/2025  12:44:45.024300	-2.854562E-2
4/7/2025  12:44:45.024800	-3.212575E-2
4/7/2025  12:44:45.025300	-2.919655E-2
4/7/2025  12:44:45.025800	-3.407855E-2
4/7/2025  12:44:45.026300	-3.310215E-2
4/7/2025  12:44:45.026800	-3.147481E-2
4/7/2025  12:44:45.027300	-4.254067E-2
4/7/2025  12:44:45.027800	-3.635681E-2
4/7/2025  12:44:45.028300	-4.481893E-2
4/7/2025  12:44:45.028800	-4.319160E-2
4/7/2025  12:44:45.029300	-5.067733E-2
4/7/2025  12:44:45.029800	-5.197919E-2
4/7/2025  12:44:45.030300	-6.597425E-2
4/7/2025  12:44:45.030800	-6.109225E-2
4/7/2025  12:44:45.031300	-7.378544E-2
4/7/2025  12:44:45.031800	-6.271958E-2
4/7/2025  12:44:45.032300	-7.118171E-2
4/7/2025  12:44:45.032800	-7.899290E-2
4/7/2025  12:44:45.033300	-7.931837E-2
4/7/2025  12:44:45.033800	-7.866743E-2
4/7/2025  12:44:45.034300	-8.973329E-2
4/7/2025  12:44:45.034800	-8.810596E-2
4/7/2025  12:44:45.035300	-8.582769E-2
4/7/2025  12:44:45.035800	-8.908236E-2
4/7/2025  12:44:45.036300	-7.345997E-2
4/7/2025  12:44:45.036800	-7.899290E-2
4/7/2025  12:44:45.037300	-7.411090E-2
4/7/2025  12:44:45.037800	-7.378544E-2
4/7/2025  12:44:45.038300	-6.955438E-2
4/7/2025  12:44:45.038800	-6.922891E-2
4/7/2025  12:44:45.039300	-6.662518E-2
4/7/2025  12:44:45.039800	-6.564878E-2
4/7/2025  12:44:45.040300	-6.402145E-2
4/7/2025  12:44:45.040800	-5.751212E-2
4/7/2025  12:44:45.041300	-5.393199E-2
4/7/2025  12:44:45.041800	-5.328106E-2
4/7/2025  12:44:45.042300	-4.709720E-2
4/7/2025  12:44:45.042800	-3.765868E-2
4/7/2025  12:44:45.043300	-5.230466E-2
4/7/2025  12:44:45.043800	-5.328106E-2
4/7/2025  12:44:45.044300	-4.807360E-2
4/7/2025  12:44:45.044800	-4.937546E-2
4/7/2025  12:44:45.045300	-5.881399E-2
4/7/2025  12:44:45.045800	-6.109225E-2
4/7/2025  12:44:45.046300	-5.979039E-2
4/7/2025  12:44:45.046800	-6.271958E-2
4/7/2025  12:44:45.047300	-6.760158E-2
4/7/2025  12:44:45.047800	-7.378544E-2
4/7/2025  12:44:45.048300	-7.443637E-2
4/7/2025  12:44:45.048800	-8.289850E-2
4/7/2025  12:44:45.049300	-8.387489E-2
4/7/2025  12:44:45.049800	-8.778049E-2
4/7/2025  12:44:45.050300	-1.138178E-1
4/7/2025  12:44:45.050800	-9.721901E-2
4/7/2025  12:44:45.051300	-1.001482E-1
4/7/2025  12:44:45.051800	-1.108886E-1
4/7/2025  12:44:45.052300	-1.053557E-1
4/7/2025  12:44:45.052800	-1.144687E-1
4/7/2025  12:44:45.053300	-1.235818E-1
4/7/2025  12:44:45.053800	-1.209781E-1
4/7/2025  12:44:45.054300	-1.369259E-1
4/7/2025  12:44:45.054800	-1.248837E-1
4/7/2025  12:44:45.055300	-1.359495E-1
4/7/2025  12:44:45.055800	-1.229309E-1
4/7/2025  12:44:45.056300	-1.235818E-1
4/7/2025  12:44:45.056800	-1.235818E-1
4/7/2025  12:44:45.057300	-1.177234E-1
4/7/2025  12:44:45.057800	-1.154451E-1
4/7/2025  12:44:45.058300	-1.147942E-1
4/7/2025  12:44:45.058800	-1.164215E-1
4/7/2025  12:44:45.059300	-1.164215E-1
4/7/2025  12:44:45.059800	-1.138178E-1
4/7/2025  12:44:45.060300	-1.076339E-1
4/7/2025  12:44:45.060800	-1.066575E-1
4/7/2025  12:44:45.061300	-1.027519E-1
4/7/2025  12:44:45.061800	-9.461528E-2
4/7/2025  12:44:45.062300	-9.201155E-2
4/7/2025  12:44:45.062800	-7.573824E-2
4/7/2025  12:44:45.063300	-8.582769E-2
4/7/2025  12:44:45.063800	-8.582769E-2
4/7/2025  12:44:45.064300	-9.201155E-2
4/7/2025  12:44:45.064800	-8.908236E-2
4/7/2025  12:44:45.065300	-9.201155E-2
4/7/2025  12:44:45.065800	-9.591715E-2
4/7/2025  12:44:45.066300	-9.917181E-2
4/7/2025  12:44:45.066800	-1.007991E-1
4/7/2025  12:44:45.067300	-1.099122E-1
4/7/2025  12:44:45.067800	-1.030774E-1
4/7/2025  12:44:45.068300	-1.073085E-1
4/7/2025  12:44:45.068800	-1.079594E-1
4/7/2025  12:44:45.069300	-1.151197E-1
4/7/2025  12:44:45.069800	-1.086103E-1
4/7/2025  12:44:45.070300	-1.274874E-1
4/7/2025  12:44:45.070800	-1.229309E-1
4/7/2025  12:44:45.071300	-1.470154E-1
4/7/2025  12:44:45.071800	-1.346476E-1
4/7/2025  12:44:45.072300	-1.352986E-1
4/7/2025  12:44:45.072800	-1.356240E-1
4/7/2025  12:44:45.073300	-1.388787E-1
4/7/2025  12:44:45.073800	-1.408315E-1
4/7/2025  12:44:45.074300	-1.414824E-1
4/7/2025  12:44:45.074800	-1.450626E-1
4/7/2025  12:44:45.075300	-1.431098E-1
4/7/2025  12:44:45.075800	-1.372514E-1
4/7/2025  12:44:45.076300	-1.366004E-1
4/7/2025  12:44:45.076800	-1.408315E-1
4/7/2025  12:44:45.077300	-1.304166E-1
4/7/2025  12:44:45.077800	-1.278128E-1
4/7/2025  12:44:45.078300	-1.235818E-1
4/7/2025  12:44:45.078800	-1.203271E-1
4/7/2025  12:44:45.079300	-1.147942E-1
4/7/2025  12:44:45.079800	-1.170725E-1
4/7/2025  12:44:45.080300	-1.160961E-1
4/7/2025  12:44:45.080800	-1.125159E-1
4/7/2025  12:44:45.081300	-1.043793E-1
4/7/2025  12:44:45.081800	-1.076339E-1
4/7/2025  12:44:45.082300	-1.007991E-1
4/7/2025  12:44:45.082800	-9.917181E-2
4/7/2025  12:44:45.083300	-9.103515E-2
4/7/2025  12:44:45.083800	-9.266249E-2
4/7/2025  12:44:45.084300	-8.810596E-2
4/7/2025  12:44:45.084800	-9.266249E-2
4/7/2025  12:44:45.085300	-9.396435E-2
4/7/2025  12:44:45.085800	-9.754448E-2
4/7/2025  12:44:45.086300	-9.494075E-2
4/7/2025  12:44:45.086800	-1.004737E-1
4/7/2025  12:44:45.087300	-1.066575E-1
4/7/2025  12:44:45.087800	-1.066575E-1
4/7/2025  12:44:45.088300	-1.105631E-1
4/7/2025  12:44:45.088800	-1.141433E-1
4/7/2025  12:44:45.089300	-1.121905E-1
4/7/2025  12:44:45.089800	-1.108886E-1
4/7/2025  12:44:45.090300	-1.144687E-1
4/7/2025  12:44:45.090800	-1.173979E-1
4/7/2025  12:44:45.091300	-1.222799E-1
4/7/2025  12:44:45.091800	-1.300911E-1
4/7/2025  12:44:45.092300	-1.411570E-1
4/7/2025  12:44:45.092800	-1.392042E-1
4/7/2025  12:44:45.093300	-1.509210E-1
4/7/2025  12:44:45.093800	-1.385532E-1
4/7/2025  12:44:45.094300	-1.437607E-1
4/7/2025  12:44:45.094800	-1.379023E-1
4/7/2025  12:44:45.095300	-1.388787E-1
4/7/2025  12:44:45.095800	-1.362750E-1
4/7/2025  12:44:45.096300	-1.372514E-1
4/7/2025  12:44:45.096800	-1.375768E-1
4/7/2025  12:44:45.097300	-1.343222E-1
4/7/2025  12:44:45.097800	-1.352986E-1
4/7/2025  12:44:45.098300	-1.252091E-1
4/7/2025  12:44:45.098800	-1.291147E-1
4/7/2025  12:44:45.099300	-1.242327E-1
4/7/2025  12:44:45.099800	-1.200017E-1
4/7/2025  12:44:45.100300	-1.180489E-1
4/7/2025  12:44:45.100800	-1.131669E-1
4/7/2025  12:44:45.101300	-1.167470E-1
4/7/2025  12:44:45.101800	-1.167470E-1
4/7/2025  12:44:45.102300	-1.069830E-1
4/7/2025  12:44:45.102800	-1.037283E-1
4/7/2025  12:44:45.103300	-1.095867E-1
4/7/2025  12:44:45.103800	-1.086103E-1
4/7/2025  12:44:45.104300	-1.089358E-1
4/7/2025  12:44:45.104800	-1.177234E-1
4/7/2025  12:44:45.105300	-1.164215E-1
4/7/2025  12:44:45.105800	-1.177234E-1
4/7/2025  12:44:45.106300	-1.278128E-1
4/7/2025  12:44:45.106800	-1.333458E-1
4/7/2025  12:44:45.107300	-1.434352E-1
4/7/2025  12:44:45.107800	-1.525483E-1
4/7/2025  12:44:45.108300	-1.613359E-1
4/7/2025  12:44:45.108800	-1.681707E-1
4/7/2025  12:44:45.109300	-1.743545E-1
4/7/2025  12:44:45.109800	-1.899769E-1
4/7/2025  12:44:45.110300	-1.922552E-1
4/7/2025  12:44:45.110800	-2.075521E-1
4/7/2025  12:44:45.111300	-2.147124E-1
4/7/2025  12:44:45.111800	-2.339149E-1
4/7/2025  12:44:45.112300	-2.462826E-1
4/7/2025  12:44:45.112800	-2.573484E-1
4/7/2025  12:44:45.113300	-2.745982E-1
4/7/2025  12:44:45.113800	-2.742727E-1
4/7/2025  12:44:45.114300	-2.830603E-1
4/7/2025  12:44:45.114800	-2.853386E-1
4/7/2025  12:44:45.115300	-2.902205E-1
4/7/2025  12:44:45.115800	-2.934752E-1
4/7/2025  12:44:45.116300	-2.973808E-1
4/7/2025  12:44:45.116800	-3.025883E-1
4/7/2025  12:44:45.117300	-3.055175E-1
4/7/2025  12:44:45.117800	-3.100740E-1
4/7/2025  12:44:45.118300	-3.149560E-1
4/7/2025  12:44:45.118800	-3.162579E-1
4/7/2025  12:44:45.119300	-3.149560E-1
4/7/2025  12:44:45.119800	-3.217908E-1
4/7/2025  12:44:45.120300	-3.211398E-1
4/7/2025  12:44:45.120800	-3.234181E-1
4/7/2025  12:44:45.121300	-3.201635E-1
4/7/2025  12:44:45.121800	-3.211398E-1
4/7/2025  12:44:45.122300	-3.130032E-1
4/7/2025  12:44:45.122800	-3.048665E-1
4/7/2025  12:44:45.123300	-3.064939E-1
4/7/2025  12:44:45.123800	-2.990081E-1
4/7/2025  12:44:45.124300	-2.947771E-1
4/7/2025  12:44:45.124800	-2.882678E-1
4/7/2025  12:44:45.125300	-2.853386E-1
4/7/2025  12:44:45.125800	-2.807820E-1
4/7/2025  12:44:45.126300	-2.745982E-1
4/7/2025  12:44:45.126800	-2.710180E-1
4/7/2025  12:44:45.127300	-2.606031E-1
4/7/2025  12:44:45.127800	-2.495373E-1
4/7/2025  12:44:45.128300	-2.345658E-1
4/7/2025  12:44:45.128800	-2.215472E-1
4/7/2025  12:44:45.129300	-1.958353E-1
4/7/2025  12:44:45.129800	-1.697980E-1
4/7/2025  12:44:45.130300	-1.509210E-1
4/7/2025  12:44:45.130800	-1.248837E-1
4/7/2025  12:44:45.131300	-9.494075E-2
4/7/2025  12:44:45.131800	-5.718666E-2
4/7/2025  12:44:45.132300	-3.928601E-2
4/7/2025  12:44:45.132800	-7.390306E-3
4/7/2025  12:44:45.133300	2.808552E-2
4/7/2025  12:44:45.133800	7.820734E-2
4/7/2025  12:44:45.134300	1.319093E-1
4/7/2025  12:44:45.134800	1.826820E-1
4/7/2025  12:44:45.135300	2.373604E-1
4/7/2025  12:44:45.135800	2.959443E-1
4/7/2025  12:44:45.136300	3.538773E-1
4/7/2025  12:44:45.136800	4.101830E-1
4/7/2025  12:44:45.137300	4.729980E-1
4/7/2025  12:44:45.137800	5.296291E-1
4/7/2025  12:44:45.138300	5.882131E-1
4/7/2025  12:44:45.138800	6.448442E-1
4/7/2025  12:44:45.139300	7.001735E-1
4/7/2025  12:44:45.139800	7.672196E-1
4/7/2025  12:44:45.140300	8.092047E-1
4/7/2025  12:44:45.140800	8.899204E-1
4/7/2025  12:44:45.141300	9.566410E-1
4/7/2025  12:44:45.141800	1.035404E+0
4/7/2025  12:44:45.142300	1.098870E+0
4/7/2025  12:44:45.142800	1.164939E+0
4/7/2025  12:44:45.143300	1.236217E+0
4/7/2025  12:44:45.143800	1.280480E+0
4/7/2025  12:44:45.144300	1.343620E+0
4/7/2025  12:44:45.144800	1.396021E+0
4/7/2025  12:44:45.145300	1.439958E+0
4/7/2025  12:44:45.145800	1.486826E+0
4/7/2025  12:44:45.146300	1.528485E+0
4/7/2025  12:44:45.146800	1.558103E+0
4/7/2025  12:44:45.147300	1.595531E+0
4/7/2025  12:44:45.147800	1.625800E+0
4/7/2025  12:44:45.148300	1.652163E+0
4/7/2025  12:44:45.148800	1.672016E+0
4/7/2025  12:44:45.149300	1.684384E+0
4/7/2025  12:44:45.149800	1.689266E+0
4/7/2025  12:44:45.150300	1.716605E+0
4/7/2025  12:44:45.150800	1.715954E+0
4/7/2025  12:44:45.151300	1.714327E+0
4/7/2025  12:44:45.151800	1.713676E+0
4/7/2025  12:44:45.152300	1.710096E+0
4/7/2025  12:44:45.152800	1.691544E+0
4/7/2025  12:44:45.153300	1.692846E+0
4/7/2025  12:44:45.153800	1.688940E+0
4/7/2025  12:44:45.154300	1.675596E+0
4/7/2025  12:44:45.154800	1.666158E+0
4/7/2025  12:44:45.155300	1.642399E+0
4/7/2025  12:44:45.155800	1.630031E+0
4/7/2025  12:44:45.156300	1.616036E+0
4/7/2025  12:44:45.156800	1.600413E+0
4/7/2025  12:44:45.157300	1.578607E+0
4/7/2025  12:44:45.157800	1.556475E+0
4/7/2025  12:44:45.158300	1.532065E+0
4/7/2025  12:44:45.158800	1.510585E+0
4/7/2025  12:44:45.159300	1.476085E+0
4/7/2025  12:44:45.159800	1.444515E+0
4/7/2025  12:44:45.160300	1.407412E+0
4/7/2025  12:44:45.160800	1.373238E+0
4/7/2025  12:44:45.161300	1.337762E+0
4/7/2025  12:44:45.161800	1.288291E+0
4/7/2025  12:44:45.162300	1.250863E+0
4/7/2025  12:44:45.162800	1.218316E+0
4/7/2025  12:44:45.163300	1.182840E+0
4/7/2025  12:44:45.163800	1.138577E+0
4/7/2025  12:44:45.164300	1.091384E+0
4/7/2025  12:44:45.164800	1.048097E+0
4/7/2025  12:44:45.165300	1.005461E+0
4/7/2025  12:44:45.165800	9.624994E-1
4/7/2025  12:44:45.166300	9.192123E-1
4/7/2025  12:44:45.166800	8.778781E-1
4/7/2025  12:44:45.167300	8.368694E-1
4/7/2025  12:44:45.167800	8.020445E-1
4/7/2025  12:44:45.168300	7.636394E-1
4/7/2025  12:44:45.168800	7.249089E-1
4/7/2025  12:44:45.169300	6.887822E-1
4/7/2025  12:44:45.169800	6.572119E-1
4/7/2025  12:44:45.170300	6.184814E-1
4/7/2025  12:44:45.170800	5.791000E-1
4/7/2025  12:44:45.171300	5.462279E-1
4/7/2025  12:44:45.171800	5.127049E-1
4/7/2025  12:44:45.172300	4.827620E-1
4/7/2025  12:44:45.172800	4.534700E-1
4/7/2025  12:44:45.173300	4.222253E-1
4/7/2025  12:44:45.173800	3.997681E-1
4/7/2025  12:44:45.174300	3.760090E-1
4/7/2025  12:44:45.174800	3.525755E-1
4/7/2025  12:44:45.175300	3.245854E-1
4/7/2025  12:44:45.175800	3.086375E-1
4/7/2025  12:44:45.176300	2.884586E-1
4/7/2025  12:44:45.176800	2.728362E-1
4/7/2025  12:44:45.177300	2.581902E-1
4/7/2025  12:44:45.177800	2.415914E-1
4/7/2025  12:44:45.178300	2.275964E-1
4/7/2025  12:44:45.178800	2.191343E-1
4/7/2025  12:44:45.179300	2.054647E-1
4/7/2025  12:44:45.179800	1.891914E-1
4/7/2025  12:44:45.180300	1.787764E-1
4/7/2025  12:44:45.180800	1.703143E-1
4/7/2025  12:44:45.181300	1.618522E-1
4/7/2025  12:44:45.181800	1.550174E-1
4/7/2025  12:44:45.182300	1.459043E-1
4/7/2025  12:44:45.182800	1.299565E-1
4/7/2025  12:44:45.183300	1.341875E-1
4/7/2025  12:44:45.183800	1.218198E-1
4/7/2025  12:44:45.184300	1.156360E-1
4/7/2025  12:44:45.184800	1.035937E-1
4/7/2025  12:44:45.185300	8.959866E-2
4/7/2025  12:44:45.185800	8.048560E-2
4/7/2025  12:44:45.186300	6.974521E-2
4/7/2025  12:44:45.186800	5.640109E-2
4/7/2025  12:44:45.187300	4.696257E-2
4/7/2025  12:44:45.187800	4.045324E-2
4/7/2025  12:44:45.188300	3.101472E-2
4/7/2025  12:44:45.188800	1.311407E-2
4/7/2025  12:44:45.189300	9.533943E-3
4/7/2025  12:44:45.189800	-9.017638E-3
4/7/2025  12:44:45.190300	-7.064840E-3
4/7/2025  12:44:45.190800	-1.682883E-2
4/7/2025  12:44:45.191300	-2.366362E-2
4/7/2025  12:44:45.191800	-3.798414E-2
4/7/2025  12:44:45.192300	-4.774813E-2
4/7/2025  12:44:45.192800	-5.588479E-2
4/7/2025  12:44:45.193300	-5.913945E-2
4/7/2025  12:44:45.193800	-7.020531E-2
4/7/2025  12:44:45.194300	-7.541277E-2
4/7/2025  12:44:45.194800	-7.899290E-2
4/7/2025  12:44:45.195300	-8.420036E-2
4/7/2025  12:44:45.195800	-9.038422E-2
4/7/2025  12:44:45.196300	-8.712956E-2
4/7/2025  12:44:45.196800	-7.931837E-2
4/7/2025  12:44:45.197300	-8.875689E-2
4/7/2025  12:44:45.197800	-9.526622E-2
4/7/2025  12:44:45.198300	-9.136062E-2
4/7/2025  12:44:45.198800	-9.624261E-2
4/7/2025  12:44:45.199300	-9.396435E-2
4/7/2025  12:44:45.199800	-9.656808E-2
4/7/2025  12:44:45.200300	-9.917181E-2
4/7/2025  12:44:45.200800	-9.396435E-2
4/7/2025  12:44:45.201300	-8.843142E-2
4/7/2025  12:44:45.201800	-9.136062E-2
4/7/2025  12:44:45.202300	-8.550223E-2
4/7/2025  12:44:45.202800	-8.192210E-2
4/7/2025  12:44:45.203300	-9.461528E-2
4/7/2025  12:44:45.203800	-8.843142E-2
4/7/2025  12:44:45.204300	-8.517676E-2
4/7/2025  12:44:45.204800	-9.103515E-2
4/7/2025  12:44:45.205300	-9.233702E-2
4/7/2025  12:44:45.205800	-9.591715E-2
4/7/2025  12:44:45.206300	-9.884635E-2
4/7/2025  12:44:45.206800	-1.043793E-1
4/7/2025  12:44:45.207300	-1.076339E-1
4/7/2025  12:44:45.207800	-1.144687E-1
4/7/2025  12:44:45.208300	-1.193507E-1
4/7/2025  12:44:45.208800	-1.248837E-1
4/7/2025  12:44:45.209300	-1.274874E-1
4/7/2025  12:44:45.209800	-1.398551E-1
4/7/2025  12:44:45.210300	-1.248837E-1
4/7/2025  12:44:45.210800	-1.515719E-1
4/7/2025  12:44:45.211300	-1.457135E-1
4/7/2025  12:44:45.211800	-1.509210E-1
4/7/2025  12:44:45.212300	-1.567794E-1
4/7/2025  12:44:45.212800	-1.561284E-1
4/7/2025  12:44:45.213300	-1.671943E-1
4/7/2025  12:44:45.213800	-1.671943E-1
4/7/2025  12:44:45.214300	-1.662179E-1
4/7/2025  12:44:45.214800	-1.694725E-1
4/7/2025  12:44:45.215300	-1.740291E-1
4/7/2025  12:44:45.215800	-1.730527E-1
4/7/2025  12:44:45.216300	-1.724017E-1
4/7/2025  12:44:45.216800	-1.658924E-1
4/7/2025  12:44:45.217300	-1.668688E-1
4/7/2025  12:44:45.217800	-1.681707E-1
4/7/2025  12:44:45.218300	-1.561284E-1
4/7/2025  12:44:45.218800	-1.645905E-1
4/7/2025  12:44:45.219300	-1.645905E-1
4/7/2025  12:44:45.219800	-1.665433E-1
4/7/2025  12:44:45.220300	-1.616613E-1
4/7/2025  12:44:45.220800	-1.558030E-1
4/7/2025  12:44:45.221300	-1.499446E-1
4/7/2025  12:44:45.221800	-1.444116E-1
4/7/2025  12:44:45.222300	-1.431098E-1
4/7/2025  12:44:45.222800	-1.476663E-1
4/7/2025  12:44:45.223300	-1.414824E-1
4/7/2025  12:44:45.223800	-1.408315E-1
4/7/2025  12:44:45.224300	-1.372514E-1
4/7/2025  12:44:45.224800	-1.320439E-1
4/7/2025  12:44:45.225300	-1.320439E-1
4/7/2025  12:44:45.225800	-1.444116E-1
4/7/2025  12:44:45.226300	-1.437607E-1
4/7/2025  12:44:45.226800	-1.470154E-1
4/7/2025  12:44:45.227300	-1.489682E-1
4/7/2025  12:44:45.227800	-1.522228E-1
4/7/2025  12:44:45.228300	-1.561284E-1
4/7/2025  12:44:45.228800	-1.610104E-1
4/7/2025  12:44:45.229300	-1.632887E-1
4/7/2025  12:44:45.229800	-1.613359E-1
4/7/2025  12:44:45.230300	-1.717508E-1
4/7/2025  12:44:45.230800	-1.717508E-1
4/7/2025  12:44:45.231300	-1.772837E-1
4/7/2025  12:44:45.231800	-1.785856E-1
4/7/2025  12:44:45.232300	-1.811893E-1
4/7/2025  12:44:45.232800	-1.893260E-1
4/7/2025  12:44:45.233300	-1.938825E-1
4/7/2025  12:44:45.233800	-2.072266E-1
4/7/2025  12:44:45.234300	-2.042974E-1
4/7/2025  12:44:45.234800	-1.987645E-1
4/7/2025  12:44:45.235300	-2.000664E-1
4/7/2025  12:44:45.235800	-1.997409E-1
4/7/2025  12:44:45.236300	-1.945334E-1
4/7/2025  12:44:45.236800	-1.903024E-1
4/7/2025  12:44:45.237300	-1.870477E-1
4/7/2025  12:44:45.237800	-1.880241E-1
4/7/2025  12:44:45.238300	-1.847695E-1
4/7/2025  12:44:45.238800	-1.795620E-1
4/7/2025  12:44:45.239300	-1.899769E-1
4/7/2025  12:44:45.239800	-1.779347E-1
4/7/2025  12:44:45.240300	-1.743545E-1
4/7/2025  12:44:45.240800	-1.714253E-1
4/7/2025  12:44:45.241300	-1.619868E-1
4/7/2025  12:44:45.241800	-1.649160E-1
4/7/2025  12:44:45.242300	-1.558030E-1
4/7/2025  12:44:45.242800	-1.486427E-1
4/7/2025  12:44:45.243300	-1.473408E-1
4/7/2025  12:44:45.243800	-1.447371E-1
4/7/2025  12:44:45.244300	-1.476663E-1
4/7/2025  12:44:45.244800	-1.431098E-1
4/7/2025  12:44:45.245300	-1.447371E-1
4/7/2025  12:44:45.245800	-1.450626E-1
4/7/2025  12:44:45.246300	-1.548266E-1
4/7/2025  12:44:45.246800	-1.492936E-1
4/7/2025  12:44:45.247300	-1.486427E-1
4/7/2025  12:44:45.247800	-1.525483E-1
4/7/2025  12:44:45.248300	-1.567794E-1
4/7/2025  12:44:45.248800	-1.587322E-1
4/7/2025  12:44:45.249300	-1.561284E-1
4/7/2025  12:44:45.249800	-1.629632E-1
4/7/2025  12:44:45.250300	-1.701235E-1
4/7/2025  12:44:45.250800	-1.671943E-1
4/7/2025  12:44:45.251300	-1.714253E-1
4/7/2025  12:44:45.251800	-1.776092E-1
4/7/2025  12:44:45.252300	-1.906279E-1
4/7/2025  12:44:45.252800	-1.880241E-1
4/7/2025  12:44:45.253300	-1.994154E-1
4/7/2025  12:44:45.253800	-2.000664E-1
4/7/2025  12:44:45.254300	-1.974626E-1
4/7/2025  12:44:45.254800	-1.961608E-1
4/7/2025  12:44:45.255300	-1.909533E-1
4/7/2025  12:44:45.255800	-1.883496E-1
4/7/2025  12:44:45.256300	-1.873732E-1
4/7/2025  12:44:45.256800	-1.834676E-1
4/7/2025  12:44:45.257300	-1.808639E-1
4/7/2025  12:44:45.257800	-1.795620E-1
4/7/2025  12:44:45.258300	-1.792365E-1
4/7/2025  12:44:45.258800	-1.769583E-1
4/7/2025  12:44:45.259300	-1.769583E-1
4/7/2025  12:44:45.259800	-1.720763E-1
4/7/2025  12:44:45.260300	-1.678452E-1
4/7/2025  12:44:45.260800	-1.730527E-1
4/7/2025  12:44:45.261300	-1.561284E-1
4/7/2025  12:44:45.261800	-1.499446E-1
4/7/2025  12:44:45.262300	-1.509210E-1
4/7/2025  12:44:45.262800	-1.492936E-1
4/7/2025  12:44:45.263300	-1.427843E-1
4/7/2025  12:44:45.263800	-1.437607E-1
4/7/2025  12:44:45.264300	-1.392042E-1
4/7/2025  12:44:45.264800	-1.405060E-1
4/7/2025  12:44:45.265300	-1.460390E-1
4/7/2025  12:44:45.265800	-1.434352E-1
4/7/2025  12:44:45.266300	-1.457135E-1
4/7/2025  12:44:45.266800	-1.499446E-1
4/7/2025  12:44:45.267300	-1.528738E-1
4/7/2025  12:44:45.267800	-1.707744E-1
4/7/2025  12:44:45.268300	-1.577558E-1
4/7/2025  12:44:45.268800	-1.584067E-1
4/7/2025  12:44:45.269300	-1.619868E-1
4/7/2025  12:44:45.269800	-1.600340E-1
4/7/2025  12:44:45.270300	-1.606849E-1
4/7/2025  12:44:45.270800	-1.639396E-1
4/7/2025  12:44:45.271300	-1.746800E-1
4/7/2025  12:44:45.271800	-1.720763E-1
4/7/2025  12:44:45.272300	-1.798875E-1
4/7/2025  12:44:45.272800	-1.876987E-1
4/7/2025  12:44:45.273300	-1.896515E-1
4/7/2025  12:44:45.273800	-1.860713E-1
4/7/2025  12:44:45.274300	-1.903024E-1
4/7/2025  12:44:45.274800	-1.821657E-1
4/7/2025  12:44:45.275300	-1.857459E-1
4/7/2025  12:44:45.275800	-1.880241E-1
4/7/2025  12:44:45.276300	-1.792365E-1
4/7/2025  12:44:45.276800	-1.756564E-1
4/7/2025  12:44:45.277300	-1.740291E-1
4/7/2025  12:44:45.277800	-1.720763E-1
4/7/2025  12:44:45.278300	-1.740291E-1
4/7/2025  12:44:45.278800	-1.655669E-1
4/7/2025  12:44:45.279300	-1.652415E-1
4/7/2025  12:44:45.279800	-1.580812E-1
4/7/2025  12:44:45.280300	-1.593831E-1
4/7/2025  12:44:45.280800	-1.548266E-1
4/7/2025  12:44:45.281300	-1.453880E-1
4/7/2025  12:44:45.281800	-1.385532E-1
4/7/2025  12:44:45.282300	-1.339967E-1
4/7/2025  12:44:45.282800	-1.343222E-1
4/7/2025  12:44:45.283300	-1.294402E-1
4/7/2025  12:44:45.283800	-1.339967E-1
4/7/2025  12:44:45.284300	-1.196762E-1
4/7/2025  12:44:45.284800	-1.385532E-1
4/7/2025  12:44:45.285300	-1.313930E-1
4/7/2025  12:44:45.285800	-1.359495E-1
4/7/2025  12:44:45.286300	-1.359495E-1
4/7/2025  12:44:45.286800	-1.379023E-1
4/7/2025  12:44:45.287300	-1.427843E-1
4/7/2025  12:44:45.287800	-1.535247E-1
4/7/2025  12:44:45.288300	-1.499446E-1
4/7/2025  12:44:45.288800	-1.613359E-1
4/7/2025  12:44:45.289300	-1.590576E-1
4/7/2025  12:44:45.289800	-1.564539E-1
4/7/2025  12:44:45.290300	-1.564539E-1
4/7/2025  12:44:45.290800	-1.753309E-1
4/7/2025  12:44:45.291300	-1.714253E-1
4/7/2025  12:44:45.291800	-1.720763E-1
4/7/2025  12:44:45.292300	-1.896515E-1
4/7/2025  12:44:45.292800	-1.935570E-1
4/7/2025  12:44:45.293300	-1.886751E-1
4/7/2025  12:44:45.293800	-1.948589E-1
4/7/2025  12:44:45.294300	-1.824912E-1
4/7/2025  12:44:45.294800	-1.863968E-1
4/7/2025  12:44:45.295300	-1.942080E-1
4/7/2025  12:44:45.295800	-1.782601E-1
4/7/2025  12:44:45.296300	-1.837931E-1
4/7/2025  12:44:45.296800	-1.776092E-1
4/7/2025  12:44:45.297300	-1.714253E-1
4/7/2025  12:44:45.297800	-1.740291E-1
4/7/2025  12:44:45.298300	-1.730527E-1
4/7/2025  12:44:45.298800	-1.671943E-1
4/7/2025  12:44:45.299300	-1.632887E-1
4/7/2025  12:44:45.299800	-1.688216E-1
4/7/2025  12:44:45.300300	-1.619868E-1
4/7/2025  12:44:45.300800	-1.561284E-1
4/7/2025  12:44:45.301300	-1.470154E-1
4/7/2025  12:44:45.301800	-1.421334E-1
4/7/2025  12:44:45.302300	-1.372514E-1
4/7/2025  12:44:45.302800	-1.291147E-1
4/7/2025  12:44:45.303300	-1.326948E-1
4/7/2025  12:44:45.303800	-1.271619E-1
4/7/2025  12:44:45.304300	-1.268364E-1
4/7/2025  12:44:45.304800	-1.336712E-1
4/7/2025  12:44:45.305300	-1.382278E-1
4/7/2025  12:44:45.305800	-1.369259E-1
4/7/2025  12:44:45.306300	-1.379023E-1
4/7/2025  12:44:45.306800	-1.411570E-1
4/7/2025  12:44:45.307300	-1.408315E-1
4/7/2025  12:44:45.307800	-1.483172E-1
4/7/2025  12:44:45.308300	-1.463644E-1
4/7/2025  12:44:45.308800	-1.512464E-1
4/7/2025  12:44:45.309300	-1.561284E-1
4/7/2025  12:44:45.309800	-1.619868E-1
4/7/2025  12:44:45.310300	-1.652415E-1
4/7/2025  12:44:45.310800	-1.645905E-1
4/7/2025  12:44:45.311300	-1.697980E-1
4/7/2025  12:44:45.311800	-1.743545E-1
4/7/2025  12:44:45.312300	-1.737036E-1
4/7/2025  12:44:45.312800	-1.753309E-1
4/7/2025  12:44:45.313300	-1.815148E-1
4/7/2025  12:44:45.313800	-1.903024E-1
4/7/2025  12:44:45.314300	-1.782601E-1
4/7/2025  12:44:45.314800	-1.828167E-1
4/7/2025  12:44:45.315300	-1.844440E-1
4/7/2025  12:44:45.315800	-1.808639E-1
4/7/2025  12:44:45.316300	-1.743545E-1
4/7/2025  12:44:45.316800	-1.704489E-1
4/7/2025  12:44:45.317300	-1.743545E-1
4/7/2025  12:44:45.317800	-1.655669E-1
4/7/2025  12:44:45.318300	-1.636141E-1
4/7/2025  12:44:45.318800	-1.639396E-1
4/7/2025  12:44:45.319300	-1.548266E-1
4/7/2025  12:44:45.319800	-1.528738E-1
4/7/2025  12:44:45.320300	-1.535247E-1
4/7/2025  12:44:45.320800	-1.414824E-1
4/7/2025  12:44:45.321300	-1.362750E-1
4/7/2025  12:44:45.321800	-1.330203E-1
4/7/2025  12:44:45.322300	-1.294402E-1
4/7/2025  12:44:45.322800	-1.281383E-1
4/7/2025  12:44:45.323300	-1.291147E-1
4/7/2025  12:44:45.323800	-1.300911E-1
4/7/2025  12:44:45.324300	-1.216290E-1
4/7/2025  12:44:45.324800	-1.239073E-1
4/7/2025  12:44:45.325300	-1.209781E-1
4/7/2025  12:44:45.325800	-1.216290E-1
4/7/2025  12:44:45.326300	-1.239073E-1
4/7/2025  12:44:45.326800	-1.281383E-1
4/7/2025  12:44:45.327300	-1.339967E-1
4/7/2025  12:44:45.327800	-1.356240E-1
4/7/2025  12:44:45.328300	-1.362750E-1
4/7/2025  12:44:45.328800	-1.427843E-1
4/7/2025  12:44:45.329300	-1.437607E-1
4/7/2025  12:44:45.329800	-1.421334E-1
4/7/2025  12:44:45.330300	-1.382278E-1
4/7/2025  12:44:45.330800	-1.418079E-1
4/7/2025  12:44:45.331300	-1.421334E-1
4/7/2025  12:44:45.331800	-1.652415E-1
4/7/2025  12:44:45.332300	-1.636141E-1
4/7/2025  12:44:45.332800	-1.675197E-1
4/7/2025  12:44:45.333300	-1.756564E-1
4/7/2025  12:44:45.333800	-1.652415E-1
4/7/2025  12:44:45.334300	-1.701235E-1
4/7/2025  12:44:45.334800	-1.610104E-1
4/7/2025  12:44:45.335300	-1.623123E-1
4/7/2025  12:44:45.335800	-1.590576E-1
4/7/2025  12:44:45.336300	-1.584067E-1
4/7/2025  12:44:45.336800	-1.538502E-1
4/7/2025  12:44:45.337300	-1.528738E-1
4/7/2025  12:44:45.337800	-1.453880E-1
4/7/2025  12:44:45.338300	-1.434352E-1
4/7/2025  12:44:45.338800	-1.343222E-1
4/7/2025  12:44:45.339300	-1.330203E-1
4/7/2025  12:44:45.339800	-1.330203E-1
4/7/2025  12:44:45.340300	-1.274874E-1
4/7/2025  12:44:45.340800	-1.203271E-1
4/7/2025  12:44:45.341300	-1.105631E-1
4/7/2025  12:44:45.341800	-1.073085E-1
4/7/2025  12:44:45.342300	-1.121905E-1
4/7/2025  12:44:45.342800	-9.721901E-2
4/7/2025  12:44:45.343300	-9.494075E-2
4/7/2025  12:44:45.343800	-9.656808E-2
4/7/2025  12:44:45.344300	-9.949728E-2
4/7/2025  12:44:45.344800	-8.550223E-2
4/7/2025  12:44:45.345300	-9.461528E-2
4/7/2025  12:44:45.345800	-8.778049E-2
4/7/2025  12:44:45.346300	-9.233702E-2
4/7/2025  12:44:45.346800	-9.526622E-2
4/7/2025  12:44:45.347300	-1.001482E-1
4/7/2025  12:44:45.347800	-9.591715E-2
4/7/2025  12:44:45.348300	-1.004737E-1
4/7/2025  12:44:45.348800	-1.001482E-1
4/7/2025  12:44:45.349300	-1.030774E-1
4/7/2025  12:44:45.349800	-1.066575E-1
4/7/2025  12:44:45.350300	-1.011246E-1
4/7/2025  12:44:45.350800	-1.258601E-1
4/7/2025  12:44:45.351300	-1.173979E-1
4/7/2025  12:44:45.351800	-1.193507E-1
4/7/2025  12:44:45.352300	-1.118650E-1
4/7/2025  12:44:45.352800	-1.216290E-1
4/7/2025  12:44:45.353300	-1.343222E-1
4/7/2025  12:44:45.353800	-1.271619E-1
4/7/2025  12:44:45.354300	-1.265110E-1
4/7/2025  12:44:45.354800	-1.173979E-1
4/7/2025  12:44:45.355300	-1.255346E-1
4/7/2025  12:44:45.355800	-1.203271E-1
4/7/2025  12:44:45.356300	-1.160961E-1
4/7/2025  12:44:45.356800	-1.134923E-1
4/7/2025  12:44:45.357300	-1.128414E-1
4/7/2025  12:44:45.357800	-1.069830E-1
4/7/2025  12:44:45.358300	-1.014501E-1
4/7/2025  12:44:45.358800	-9.461528E-2
4/7/2025  12:44:45.359300	-1.034029E-1
4/7/2025  12:44:45.359800	-8.485129E-2
4/7/2025  12:44:45.360300	-8.029476E-2
4/7/2025  12:44:45.360800	-7.476184E-2
4/7/2025  12:44:45.361300	-7.085624E-2
4/7/2025  12:44:45.361800	-7.150717E-2
4/7/2025  12:44:45.362300	-5.783759E-2
4/7/2025  12:44:45.362800	-6.271958E-2
4/7/2025  12:44:45.363300	-4.774813E-2
4/7/2025  12:44:45.363800	-4.579533E-2
4/7/2025  12:44:45.364300	-6.792704E-2
4/7/2025  12:44:45.364800	-4.449347E-2
4/7/2025  12:44:45.365300	-4.514440E-2
4/7/2025  12:44:45.365800	-4.872453E-2
4/7/2025  12:44:45.366300	-4.839906E-2
4/7/2025  12:44:45.366800	-5.458292E-2
4/7/2025  12:44:45.367300	-5.230466E-2
4/7/2025  12:44:45.367800	-5.165373E-2
4/7/2025  12:44:45.368300	-5.425746E-2
4/7/2025  12:44:45.368800	-5.523386E-2
4/7/2025  12:44:45.369300	-5.653572E-2
4/7/2025  12:44:45.369800	-5.295559E-2
4/7/2025  12:44:45.370300	-6.141772E-2
4/7/2025  12:44:45.370800	-5.913945E-2
4/7/2025  12:44:45.371300	-7.345997E-2
4/7/2025  12:44:45.371800	-7.345997E-2
4/7/2025  12:44:45.372300	-7.215811E-2
4/7/2025  12:44:45.372800	-8.712956E-2
4/7/2025  12:44:45.373300	-7.573824E-2
4/7/2025  12:44:45.373800	-8.843142E-2
4/7/2025  12:44:45.374300	-8.029476E-2
4/7/2025  12:44:45.374800	-8.973329E-2
4/7/2025  12:44:45.375300	-7.736557E-2
4/7/2025  12:44:45.375800	-7.638917E-2
4/7/2025  12:44:45.376300	-6.629971E-2
4/7/2025  12:44:45.376800	-5.979039E-2
4/7/2025  12:44:45.377300	-5.783759E-2
4/7/2025  12:44:45.377800	-5.197919E-2
4/7/2025  12:44:45.378300	-4.937546E-2
4/7/2025  12:44:45.378800	-4.709720E-2
4/7/2025  12:44:45.379300	-3.570588E-2
4/7/2025  12:44:45.379800	-3.212575E-2
4/7/2025  12:44:45.380300	-2.594189E-2
4/7/2025  12:44:45.380800	-2.626735E-2
4/7/2025  12:44:45.381300	-9.668571E-3
4/7/2025  12:44:45.381800	-5.112042E-3
4/7/2025  12:44:45.382300	-1.531912E-3
4/7/2025  12:44:45.382800	1.051034E-2
4/7/2025  12:44:45.383300	1.376501E-2
4/7/2025  12:44:45.383800	1.083581E-2
4/7/2025  12:44:45.384300	1.994887E-2
4/7/2025  12:44:45.384800	1.604327E-2
4/7/2025  12:44:45.385300	1.701967E-2
4/7/2025  12:44:45.385800	1.799607E-2
4/7/2025  12:44:45.386300	2.222713E-2
4/7/2025  12:44:45.386800	1.864700E-2
4/7/2025  12:44:45.387300	1.734513E-2
4/7/2025  12:44:45.387800	6.279280E-3
4/7/2025  12:44:45.388300	1.506687E-2
4/7/2025  12:44:45.388800	1.441594E-2
4/7/2025  12:44:45.389300	8.883010E-3
4/7/2025  12:44:45.389800	1.539234E-2
4/7/2025  12:44:45.390300	1.571780E-2
4/7/2025  12:44:45.390800	2.352900E-2
4/7/2025  12:44:45.391300	1.441594E-2
4/7/2025  12:44:45.391800	-1.206446E-3
4/7/2025  12:44:45.392300	1.397285E-3
4/7/2025  12:44:45.392800	-1.129590E-2
4/7/2025  12:44:45.393300	-1.206446E-3
4/7/2025  12:44:45.393800	-5.437508E-3
4/7/2025  12:44:45.394300	-1.455057E-2
4/7/2025  12:44:45.394800	3.350083E-3
4/7/2025  12:44:45.395300	-8.809796E-4
4/7/2025  12:44:45.395800	1.397285E-3
4/7/2025  12:44:45.396300	7.255679E-3
4/7/2025  12:44:45.396800	2.699150E-3
4/7/2025  12:44:45.397300	1.701967E-2
4/7/2025  12:44:45.397800	1.181221E-2
4/7/2025  12:44:45.398300	2.027433E-2
4/7/2025  12:44:45.398800	2.352900E-2
4/7/2025  12:44:45.399300	2.613273E-2
4/7/2025  12:44:45.399800	3.036379E-2
4/7/2025  12:44:45.400300	3.101472E-2
4/7/2025  12:44:45.400800	3.394392E-2
4/7/2025  12:44:45.401300	4.305698E-2
4/7/2025  12:44:45.401800	4.631164E-2
4/7/2025  12:44:45.402300	6.649055E-2
4/7/2025  12:44:45.402800	5.867936E-2
4/7/2025  12:44:45.403300	5.867936E-2
4/7/2025  12:44:45.403800	6.779242E-2
4/7/2025  12:44:45.404300	7.365081E-2
4/7/2025  12:44:45.404800	5.802843E-2
4/7/2025  12:44:45.405300	6.225949E-2
4/7/2025  12:44:45.405800	5.379736E-2
4/7/2025  12:44:45.406300	6.486322E-2
4/7/2025  12:44:45.406800	6.063216E-2
4/7/2025  12:44:45.407300	5.705203E-2
4/7/2025  12:44:45.407800	5.672656E-2
4/7/2025  12:44:45.408300	5.184457E-2
4/7/2025  12:44:45.408800	5.770296E-2
4/7/2025  12:44:45.409300	4.566071E-2
4/7/2025  12:44:45.409800	4.403337E-2
4/7/2025  12:44:45.410300	4.858990E-2
4/7/2025  12:44:45.410800	3.231659E-2
4/7/2025  12:44:45.411300	3.199112E-2
4/7/2025  12:44:45.411800	2.255260E-2
4/7/2025  12:44:45.412300	2.190166E-2
4/7/2025  12:44:45.412800	1.376501E-2
4/7/2025  12:44:45.413300	1.506687E-2
4/7/2025  12:44:45.413800	6.930212E-3
4/7/2025  12:44:45.414300	1.799607E-2
4/7/2025  12:44:45.414800	1.441594E-2
4/7/2025  12:44:45.415300	1.701967E-2
4/7/2025  12:44:45.415800	1.701967E-2
4/7/2025  12:44:45.416300	1.311407E-2
4/7/2025  12:44:45.416800	2.483086E-2
4/7/2025  12:44:45.417300	2.743459E-2
4/7/2025  12:44:45.417800	2.938739E-2
4/7/2025  12:44:45.418300	3.036379E-2
4/7/2025  12:44:45.418800	3.231659E-2
4/7/2025  12:44:45.419300	3.622218E-2
4/7/2025  12:44:45.419800	3.459485E-2
4/7/2025  12:44:45.420300	3.915138E-2
4/7/2025  12:44:45.420800	4.468431E-2
4/7/2025  12:44:45.421300	5.086817E-2
4/7/2025  12:44:45.421800	5.705203E-2
4/7/2025  12:44:45.422300	6.193402E-2
4/7/2025  12:44:45.422800	5.672656E-2
4/7/2025  12:44:45.423300	5.347190E-2
4/7/2025  12:44:45.423800	6.551415E-2
4/7/2025  12:44:45.424300	6.811788E-2
4/7/2025  12:44:45.424800	6.323589E-2
4/7/2025  12:44:45.425300	5.542470E-2
4/7/2025  12:44:45.425800	5.151910E-2
4/7/2025  12:44:45.426300	4.989177E-2
4/7/2025  12:44:45.426800	4.403337E-2
4/7/2025  12:44:45.427300	4.012778E-2
4/7/2025  12:44:45.427800	3.329299E-2
4/7/2025  12:44:45.428300	2.873646E-2
4/7/2025  12:44:45.428800	2.059980E-2
4/7/2025  12:44:45.429300	1.669420E-2
4/7/2025  12:44:45.429800	4.651948E-3
4/7/2025  12:44:45.430300	3.350083E-3
4/7/2025  12:44:45.430800	7.581145E-3
4/7/2025  12:44:45.431300	-1.064497E-2
4/7/2025  12:44:45.431800	-1.813070E-2
4/7/2025  12:44:45.432300	-1.259777E-2
4/7/2025  12:44:45.432800	-1.650336E-2
4/7/2025  12:44:45.433300	-1.813070E-2
4/7/2025  12:44:45.433800	-2.431456E-2
4/7/2025  12:44:45.434300	-2.691829E-2
4/7/2025  12:44:45.434800	-2.594189E-2
4/7/2025  12:44:45.435300	-2.301269E-2
4/7/2025  12:44:45.435800	-2.822015E-2
4/7/2025  12:44:45.436300	-2.496549E-2
4/7/2025  12:44:45.436800	-2.105989E-2
4/7/2025  12:44:45.437300	-2.171082E-2
4/7/2025  12:44:45.437800	-2.268722E-2
4/7/2025  12:44:45.438300	-2.203629E-2
4/7/2025  12:44:45.438800	-1.747976E-2
4/7/2025  12:44:45.439300	-1.585243E-2
4/7/2025  12:44:45.439800	-1.227230E-2
4/7/2025  12:44:45.440300	-1.585243E-2
4/7/2025  12:44:45.440800	-1.487603E-2
4/7/2025  12:44:45.441300	-7.064840E-3
4/7/2025  12:44:45.441800	7.463520E-4
4/7/2025  12:44:45.442300	-3.159244E-3
4/7/2025  12:44:45.442800	-7.715773E-3
4/7/2025  12:44:45.443300	2.699150E-3
4/7/2025  12:44:45.443800	1.181221E-2
4/7/2025  12:44:45.444300	1.397285E-3
4/7/2025  12:44:45.444800	-1.292323E-2
4/7/2025  12:44:45.445300	-1.531912E-3
4/7/2025  12:44:45.445800	-7.390306E-3
4/7/2025  12:44:45.446300	-5.437508E-3
4/7/2025  12:44:45.446800	-1.780523E-2
4/7/2025  12:44:45.447300	-1.813070E-2
4/7/2025  12:44:45.447800	-2.431456E-2
4/7/2025  12:44:45.448300	-3.765868E-2
4/7/2025  12:44:45.448800	-3.310215E-2
4/7/2025  12:44:45.449300	-3.961147E-2
4/7/2025  12:44:45.449800	-4.612080E-2
4/7/2025  12:44:45.450300	-5.621026E-2
4/7/2025  12:44:45.450800	-6.076678E-2
4/7/2025  12:44:45.451300	-5.523386E-2
4/7/2025  12:44:45.451800	-6.011585E-2
4/7/2025  12:44:45.452300	-6.499785E-2
4/7/2025  12:44:45.452800	-8.712956E-2
4/7/2025  12:44:45.453300	-8.257303E-2
4/7/2025  12:44:45.453800	-9.103515E-2
4/7/2025  12:44:45.454300	-8.680409E-2
4/7/2025  12:44:45.454800	-8.647862E-2
4/7/2025  12:44:45.455300	-8.973329E-2
4/7/2025  12:44:45.455800	-8.647862E-2
4/7/2025  12:44:45.456300	-8.485129E-2
4/7/2025  12:44:45.456800	-8.224756E-2
4/7/2025  12:44:45.457300	-8.127116E-2
4/7/2025  12:44:45.457800	-8.420036E-2
4/7/2025  12:44:45.458300	-8.745502E-2
4/7/2025  12:44:45.458800	-7.996930E-2
4/7/2025  12:44:45.459300	-7.899290E-2
4/7/2025  12:44:45.459800	-7.606370E-2
4/7/2025  12:44:45.460300	-8.159663E-2
4/7/2025  12:44:45.460800	-7.215811E-2
4/7/2025  12:44:45.461300	-7.248357E-2
4/7/2025  12:44:45.461800	-6.597425E-2
4/7/2025  12:44:45.462300	-6.955438E-2
4/7/2025  12:44:45.462800	-6.304505E-2
4/7/2025  12:44:45.463300	-5.913945E-2
4/7/2025  12:44:45.463800	-5.913945E-2
4/7/2025  12:44:45.464300	-5.555932E-2
4/7/2025  12:44:45.464800	-6.174318E-2
4/7/2025  12:44:45.465300	-6.206865E-2
4/7/2025  12:44:45.465800	-7.150717E-2
4/7/2025  12:44:45.466300	-7.378544E-2
4/7/2025  12:44:45.466800	-7.411090E-2
4/7/2025  12:44:45.467300	-7.671463E-2
4/7/2025  12:44:45.467800	-7.606370E-2
4/7/2025  12:44:45.468300	-8.257303E-2
4/7/2025  12:44:45.468800	-9.298795E-2
4/7/2025  12:44:45.469300	-9.591715E-2
4/7/2025  12:44:45.469800	-9.103515E-2
4/7/2025  12:44:45.470300	-8.908236E-2
4/7/2025  12:44:45.470800	-9.363888E-2
4/7/2025  12:44:45.471300	-1.053557E-1
4/7/2025  12:44:45.471800	-1.128414E-1
4/7/2025  12:44:45.472300	-1.102377E-1
4/7/2025  12:44:45.472800	-1.213035E-1
4/7/2025  12:44:45.473300	-1.222799E-1
4/7/2025  12:44:45.473800	-1.154451E-1
4/7/2025  12:44:45.474300	-1.203271E-1
4/7/2025  12:44:45.474800	-1.242327E-1
4/7/2025  12:44:45.475300	-1.216290E-1
4/7/2025  12:44:45.475800	-1.248837E-1
4/7/2025  12:44:45.476300	-1.160961E-1
4/7/2025  12:44:45.476800	-1.134923E-1
4/7/2025  12:44:45.477300	-1.118650E-1
4/7/2025  12:44:45.477800	-1.050302E-1
4/7/2025  12:44:45.478300	-1.040538E-1
4/7/2025  12:44:45.478800	-1.011246E-1
4/7/2025  12:44:45.479300	-9.949728E-2
4/7/2025  12:44:45.479800	-1.089358E-1
4/7/2025  12:44:45.480300	-9.591715E-2
4/7/2025  12:44:45.480800	-8.973329E-2
4/7/2025  12:44:45.481300	-8.712956E-2
4/7/2025  12:44:45.481800	-7.964383E-2
4/7/2025  12:44:45.482300	-8.420036E-2
4/7/2025  12:44:45.482800	-6.987984E-2
4/7/2025  12:44:45.483300	-7.150717E-2
4/7/2025  12:44:45.483800	-7.183264E-2
4/7/2025  12:44:45.484300	-7.150717E-2
4/7/2025  12:44:45.484800	-6.760158E-2
4/7/2025  12:44:45.485300	-7.280904E-2
4/7/2025  12:44:45.485800	-7.671463E-2
4/7/2025  12:44:45.486300	-8.127116E-2
4/7/2025  12:44:45.486800	-8.029476E-2
4/7/2025  12:44:45.487300	-8.354943E-2
4/7/2025  12:44:45.487800	-8.550223E-2
4/7/2025  12:44:45.488300	-9.201155E-2
4/7/2025  12:44:45.488800	-9.526622E-2
4/7/2025  12:44:45.489300	-1.017755E-1
4/7/2025  12:44:45.489800	-1.043793E-1
4/7/2025  12:44:45.490300	-1.154451E-1
4/7/2025  12:44:45.490800	-1.112141E-1
4/7/2025  12:44:45.491300	-1.131669E-1
4/7/2025  12:44:45.491800	-1.186998E-1
4/7/2025  12:44:45.492300	-1.200017E-1
4/7/2025  12:44:45.492800	-1.239073E-1
4/7/2025  12:44:45.493300	-1.379023E-1
4/7/2025  12:44:45.493800	-1.261855E-1
4/7/2025  12:44:45.494300	-1.392042E-1
4/7/2025  12:44:45.494800	-1.470154E-1
4/7/2025  12:44:45.495300	-1.349731E-1
4/7/2025  12:44:45.495800	-1.320439E-1
4/7/2025  12:44:45.496300	-1.326948E-1
4/7/2025  12:44:45.496800	-1.252091E-1
4/7/2025  12:44:45.497300	-1.219545E-1
4/7/2025  12:44:45.497800	-1.167470E-1
4/7/2025  12:44:45.498300	-1.138178E-1
4/7/2025  12:44:45.498800	-1.131669E-1
4/7/2025  12:44:45.499300	-1.157706E-1
4/7/2025  12:44:45.499800	-1.082849E-1
4/7/2025  12:44:45.500300	-1.034029E-1
4/7/2025  12:44:45.500800	-9.819541E-2
4/7/2025  12:44:45.501300	-9.624261E-2
4/7/2025  12:44:45.501800	-8.485129E-2
4/7/2025  12:44:45.502300	-7.736557E-2
4/7/2025  12:44:45.502800	-7.443637E-2
4/7/2025  12:44:45.503300	-6.532331E-2
4/7/2025  12:44:45.503800	-7.378544E-2
4/7/2025  12:44:45.504300	-6.890344E-2
4/7/2025  12:44:45.504800	-8.029476E-2
4/7/2025  12:44:45.505300	-7.118171E-2
4/7/2025  12:44:45.505800	-7.638917E-2
4/7/2025  12:44:45.506300	-8.094570E-2
4/7/2025  12:44:45.506800	-8.159663E-2
4/7/2025  12:44:45.507300	-8.973329E-2
4/7/2025  12:44:45.507800	-7.801650E-2
4/7/2025  12:44:45.508300	-9.331342E-2
4/7/2025  12:44:45.508800	-9.884635E-2
4/7/2025  12:44:45.509300	-1.047047E-1
4/7/2025  12:44:45.509800	-1.060066E-1
4/7/2025  12:44:45.510300	-1.069830E-1
4/7/2025  12:44:45.510800	-1.138178E-1
4/7/2025  12:44:45.511300	-1.151197E-1
4/7/2025  12:44:45.511800	-1.229309E-1
4/7/2025  12:44:45.512300	-1.261855E-1
4/7/2025  12:44:45.512800	-1.375768E-1
4/7/2025  12:44:45.513300	-1.258601E-1
4/7/2025  12:44:45.513800	-1.486427E-1
4/7/2025  12:44:45.514300	-1.405060E-1
4/7/2025  12:44:45.514800	-1.424588E-1
4/7/2025  12:44:45.515300	-1.447371E-1
4/7/2025  12:44:45.515800	-1.375768E-1
4/7/2025  12:44:45.516300	-1.372514E-1
4/7/2025  12:44:45.516800	-1.330203E-1
4/7/2025  12:44:45.517300	-1.252091E-1
4/7/2025  12:44:45.517800	-1.222799E-1
4/7/2025  12:44:45.518300	-1.222799E-1
4/7/2025  12:44:45.518800	-1.186998E-1
4/7/2025  12:44:45.519300	-1.203271E-1
4/7/2025  12:44:45.519800	-1.157706E-1
4/7/2025  12:44:45.520300	-1.177234E-1
4/7/2025  12:44:45.520800	-1.131669E-1
4/7/2025  12:44:45.521300	-1.066575E-1
4/7/2025  12:44:45.521800	-9.982274E-2
4/7/2025  12:44:45.522300	-9.298795E-2
4/7/2025  12:44:45.522800	-8.843142E-2
4/7/2025  12:44:45.523300	-9.298795E-2
4/7/2025  12:44:45.523800	-8.550223E-2
4/7/2025  12:44:45.524300	-9.624261E-2
4/7/2025  12:44:45.524800	-8.257303E-2
4/7/2025  12:44:45.525300	-9.103515E-2
4/7/2025  12:44:45.525800	-9.396435E-2
4/7/2025  12:44:45.526300	-9.689355E-2
4/7/2025  12:44:45.526800	-1.001482E-1
4/7/2025  12:44:45.527300	-1.034029E-1
4/7/2025  12:44:45.527800	-1.102377E-1
4/7/2025  12:44:45.528300	-1.040538E-1
4/7/2025  12:44:45.528800	-1.053557E-1
4/7/2025  12:44:45.529300	-1.121905E-1
4/7/2025  12:44:45.529800	-1.219545E-1
4/7/2025  12:44:45.530300	-1.304166E-1
4/7/2025  12:44:45.530800	-1.242327E-1
4/7/2025  12:44:45.531300	-1.242327E-1
4/7/2025  12:44:45.531800	-1.317184E-1
4/7/2025  12:44:45.532300	-1.398551E-1
4/7/2025  12:44:45.532800	-1.278128E-1
4/7/2025  12:44:45.533300	-1.411570E-1
4/7/2025  12:44:45.533800	-1.460390E-1
4/7/2025  12:44:45.534300	-1.479918E-1
4/7/2025  12:44:45.534800	-1.509210E-1
4/7/2025  12:44:45.535300	-1.473408E-1
4/7/2025  12:44:45.535800	-1.499446E-1
4/7/2025  12:44:45.536300	-1.496191E-1
4/7/2025  12:44:45.536800	-1.450626E-1
4/7/2025  12:44:45.537300	-1.392042E-1
4/7/2025  12:44:45.537800	-1.372514E-1
4/7/2025  12:44:45.538300	-1.392042E-1
4/7/2025  12:44:45.538800	-1.375768E-1
4/7/2025  12:44:45.539300	-1.317184E-1
4/7/2025  12:44:45.539800	-1.287892E-1
4/7/2025  12:44:45.540300	-1.252091E-1
4/7/2025  12:44:45.540800	-1.219545E-1
4/7/2025  12:44:45.541300	-1.203271E-1
4/7/2025  12:44:45.541800	-1.125159E-1
4/7/2025  12:44:45.542300	-1.063321E-1
4/7/2025  12:44:45.542800	-9.949728E-2
4/7/2025  12:44:45.543300	-9.591715E-2
4/7/2025  12:44:45.543800	-9.233702E-2
4/7/2025  12:44:45.544300	-9.201155E-2
4/7/2025  12:44:45.544800	-9.721901E-2
4/7/2025  12:44:45.545300	-1.027519E-1
4/7/2025  12:44:45.545800	-1.027519E-1
4/7/2025  12:44:45.546300	-1.047047E-1
4/7/2025  12:44:45.546800	-1.066575E-1
4/7/2025  12:44:45.547300	-1.076339E-1
4/7/2025  12:44:45.547800	-1.099122E-1
4/7/2025  12:44:45.548300	-1.177234E-1
4/7/2025  12:44:45.548800	-1.180489E-1
4/7/2025  12:44:45.549300	-1.235818E-1
4/7/2025  12:44:45.549800	-1.242327E-1
4/7/2025  12:44:45.550300	-1.147942E-1
4/7/2025  12:44:45.550800	-1.313930E-1
4/7/2025  12:44:45.551300	-1.362750E-1
4/7/2025  12:44:45.551800	-1.343222E-1
4/7/2025  12:44:45.552300	-1.466899E-1
4/7/2025  12:44:45.552800	-1.421334E-1
4/7/2025  12:44:45.553300	-1.450626E-1
4/7/2025  12:44:45.553800	-1.525483E-1
4/7/2025  12:44:45.554300	-1.688216E-1
4/7/2025  12:44:45.554800	-1.545011E-1
4/7/2025  12:44:45.555300	-1.531992E-1
4/7/2025  12:44:45.555800	-1.531992E-1
4/7/2025  12:44:45.556300	-1.496191E-1
4/7/2025  12:44:45.556800	-1.535247E-1
4/7/2025  12:44:45.557300	-1.473408E-1
4/7/2025  12:44:45.557800	-1.405060E-1
4/7/2025  12:44:45.558300	-1.421334E-1
4/7/2025  12:44:45.558800	-1.366004E-1
4/7/2025  12:44:45.559300	-1.336712E-1
4/7/2025  12:44:45.559800	-1.388787E-1
4/7/2025  12:44:45.560300	-1.291147E-1
4/7/2025  12:44:45.560800	-1.235818E-1
4/7/2025  12:44:45.561300	-1.160961E-1
4/7/2025  12:44:45.561800	-1.105631E-1
4/7/2025  12:44:45.562300	-1.082849E-1
4/7/2025  12:44:45.562800	-1.164215E-1
4/7/2025  12:44:45.563300	-1.043793E-1
4/7/2025  12:44:45.563800	-9.786995E-2
4/7/2025  12:44:45.564300	-8.973329E-2
4/7/2025  12:44:45.564800	-9.298795E-2
4/7/2025  12:44:45.565300	-1.001482E-1
4/7/2025  12:44:45.565800	-9.689355E-2
4/7/2025  12:44:45.566300	-9.786995E-2
4/7/2025  12:44:45.566800	-1.060066E-1
4/7/2025  12:44:45.567300	-1.047047E-1
4/7/2025  12:44:45.567800	-1.134923E-1
4/7/2025  12:44:45.568300	-1.092613E-1
4/7/2025  12:44:45.568800	-1.118650E-1
4/7/2025  12:44:45.569300	-1.154451E-1
4/7/2025  12:44:45.569800	-1.154451E-1
4/7/2025  12:44:45.570300	-1.180489E-1
4/7/2025  12:44:45.570800	-1.200017E-1
4/7/2025  12:44:45.571300	-1.222799E-1
4/7/2025  12:44:45.571800	-1.173979E-1
4/7/2025  12:44:45.572300	-1.362750E-1
4/7/2025  12:44:45.572800	-1.388787E-1
4/7/2025  12:44:45.573300	-1.401806E-1
4/7/2025  12:44:45.573800	-1.489682E-1
4/7/2025  12:44:45.574300	-1.440862E-1
4/7/2025  12:44:45.574800	-1.392042E-1
4/7/2025  12:44:45.575300	-1.437607E-1
4/7/2025  12:44:45.575800	-1.372514E-1
4/7/2025  12:44:45.576300	-1.366004E-1
4/7/2025  12:44:45.576800	-1.339967E-1
4/7/2025  12:44:45.577300	-1.326948E-1
4/7/2025  12:44:45.577800	-1.323694E-1
4/7/2025  12:44:45.578300	-1.304166E-1
4/7/2025  12:44:45.578800	-1.359495E-1
4/7/2025  12:44:45.579300	-1.274874E-1
4/7/2025  12:44:45.579800	-1.222799E-1
4/7/2025  12:44:45.580300	-1.196762E-1
4/7/2025  12:44:45.580800	-1.183743E-1
4/7/2025  12:44:45.581300	-1.095867E-1
4/7/2025  12:44:45.581800	-1.027519E-1
4/7/2025  12:44:45.582300	-1.014501E-1
4/7/2025  12:44:45.582800	-9.852088E-2
4/7/2025  12:44:45.583300	-9.428982E-2
4/7/2025  12:44:45.583800	-9.396435E-2
4/7/2025  12:44:45.584300	-9.201155E-2
4/7/2025  12:44:45.584800	-1.082849E-1
4/7/2025  12:44:45.585300	-9.494075E-2
4/7/2025  12:44:45.585800	-9.428982E-2
4/7/2025  12:44:45.586300	-9.754448E-2
4/7/2025  12:44:45.586800	-1.034029E-1
4/7/2025  12:44:45.587300	-1.050302E-1
4/7/2025  12:44:45.587800	-1.073085E-1
4/7/2025  12:44:45.588300	-1.073085E-1
4/7/2025  12:44:45.588800	-1.108886E-1
4/7/2025  12:44:45.589300	-1.186998E-1
4/7/2025  12:44:45.589800	-1.173979E-1
4/7/2025  12:44:45.590300	-1.196762E-1
4/7/2025  12:44:45.590800	-1.206526E-1
4/7/2025  12:44:45.591300	-1.284638E-1
4/7/2025  12:44:45.591800	-1.323694E-1
4/7/2025  12:44:45.592300	-1.450626E-1
4/7/2025  12:44:45.592800	-1.479918E-1
4/7/2025  12:44:45.593300	-1.463644E-1
4/7/2025  12:44:45.593800	-1.515719E-1
4/7/2025  12:44:45.594300	-1.535247E-1
4/7/2025  12:44:45.594800	-1.548266E-1
4/7/2025  12:44:45.595300	-1.525483E-1
4/7/2025  12:44:45.595800	-1.444116E-1
4/7/2025  12:44:45.596300	-1.457135E-1
4/7/2025  12:44:45.596800	-1.463644E-1
4/7/2025  12:44:45.597300	-1.431098E-1
4/7/2025  12:44:45.597800	-1.444116E-1
4/7/2025  12:44:45.598300	-1.418079E-1
4/7/2025  12:44:45.598800	-1.323694E-1
4/7/2025  12:44:45.599300	-1.339967E-1
4/7/2025  12:44:45.599800	-1.362750E-1
4/7/2025  12:44:45.600300	-1.252091E-1
4/7/2025  12:44:45.600800	-1.200017E-1
4/7/2025  12:44:45.601300	-1.141433E-1
4/7/2025  12:44:45.601800	-1.099122E-1
4/7/2025  12:44:45.602300	-1.053557E-1
4/7/2025  12:44:45.602800	-1.027519E-1
4/7/2025  12:44:45.603300	-1.043793E-1
4/7/2025  12:44:45.603800	-9.363888E-2
4/7/2025  12:44:45.604300	-9.201155E-2
4/7/2025  12:44:45.604800	-9.103515E-2
4/7/2025  12:44:45.605300	-9.168609E-2
4/7/2025  12:44:45.605800	-9.331342E-2
4/7/2025  12:44:45.606300	-9.852088E-2
4/7/2025  12:44:45.606800	-9.624261E-2
4/7/2025  12:44:45.607300	-1.092613E-1
4/7/2025  12:44:45.607800	-1.066575E-1
4/7/2025  12:44:45.608300	-1.105631E-1
4/7/2025  12:44:45.608800	-1.138178E-1
4/7/2025  12:44:45.609300	-1.196762E-1
4/7/2025  12:44:45.609800	-1.151197E-1
4/7/2025  12:44:45.610300	-1.151197E-1
4/7/2025  12:44:45.610800	-1.213035E-1
4/7/2025  12:44:45.611300	-1.346476E-1
4/7/2025  12:44:45.611800	-1.287892E-1
4/7/2025  12:44:45.612300	-1.320439E-1
4/7/2025  12:44:45.612800	-1.356240E-1
4/7/2025  12:44:45.613300	-1.551520E-1
4/7/2025  12:44:45.613800	-1.574303E-1
4/7/2025  12:44:45.614300	-1.366004E-1
4/7/2025  12:44:45.614800	-1.538502E-1
4/7/2025  12:44:45.615300	-1.411570E-1
4/7/2025  12:44:45.615800	-1.437607E-1
4/7/2025  12:44:45.616300	-1.434352E-1
4/7/2025  12:44:45.616800	-1.382278E-1
4/7/2025  12:44:45.617300	-1.359495E-1
4/7/2025  12:44:45.617800	-1.349731E-1
4/7/2025  12:44:45.618300	-1.300911E-1
4/7/2025  12:44:45.618800	-1.274874E-1
4/7/2025  12:44:45.619300	-1.235818E-1
4/7/2025  12:44:45.619800	-1.183743E-1
4/7/2025  12:44:45.620300	-1.186998E-1
4/7/2025  12:44:45.620800	-1.167470E-1
4/7/2025  12:44:45.621300	-1.011246E-1
4/7/2025  12:44:45.621800	-1.043793E-1
4/7/2025  12:44:45.622300	-1.053557E-1
4/7/2025  12:44:45.622800	-9.852088E-2
4/7/2025  12:44:45.623300	-9.331342E-2
4/7/2025  12:44:45.623800	-9.298795E-2
4/7/2025  12:44:45.624300	-8.778049E-2
4/7/2025  12:44:45.624800	-8.647862E-2
4/7/2025  12:44:45.625300	-9.331342E-2
4/7/2025  12:44:45.625800	-9.754448E-2
4/7/2025  12:44:45.626300	-1.004737E-1
4/7/2025  12:44:45.626800	-9.917181E-2
4/7/2025  12:44:45.627300	-1.043793E-1
4/7/2025  12:44:45.627800	-1.073085E-1
4/7/2025  12:44:45.628300	-1.170725E-1
4/7/2025  12:44:45.628800	-1.151197E-1
4/7/2025  12:44:45.629300	-1.134923E-1
4/7/2025  12:44:45.629800	-1.167470E-1
4/7/2025  12:44:45.630300	-1.203271E-1
4/7/2025  12:44:45.630800	-1.206526E-1
4/7/2025  12:44:45.631300	-1.245582E-1
4/7/2025  12:44:45.631800	-1.388787E-1
4/7/2025  12:44:45.632300	-1.372514E-1
4/7/2025  12:44:45.632800	-1.369259E-1
4/7/2025  12:44:45.633300	-1.418079E-1
4/7/2025  12:44:45.633800	-1.444116E-1
4/7/2025  12:44:45.634300	-1.418079E-1
4/7/2025  12:44:45.634800	-1.431098E-1
4/7/2025  12:44:45.635300	-1.483172E-1
4/7/2025  12:44:45.635800	-1.444116E-1
4/7/2025  12:44:45.636300	-1.385532E-1
4/7/2025  12:44:45.636800	-1.372514E-1
4/7/2025  12:44:45.637300	-1.291147E-1
4/7/2025  12:44:45.637800	-1.287892E-1
4/7/2025  12:44:45.638300	-1.261855E-1
4/7/2025  12:44:45.638800	-1.222799E-1
4/7/2025  12:44:45.639300	-1.180489E-1
4/7/2025  12:44:45.639800	-1.206526E-1
4/7/2025  12:44:45.640300	-1.167470E-1
4/7/2025  12:44:45.640800	-1.134923E-1
4/7/2025  12:44:45.641300	-1.089358E-1
4/7/2025  12:44:45.641800	-9.982274E-2
4/7/2025  12:44:45.642300	-1.056811E-1
4/7/2025  12:44:45.642800	-8.778049E-2
4/7/2025  12:44:45.643300	-8.354943E-2
4/7/2025  12:44:45.643800	-7.996930E-2
4/7/2025  12:44:45.644300	-9.363888E-2
4/7/2025  12:44:45.644800	-8.875689E-2
4/7/2025  12:44:45.645300	-8.940782E-2
4/7/2025  12:44:45.645800	-8.550223E-2
4/7/2025  12:44:45.646300	-1.001482E-1
4/7/2025  12:44:45.646800	-9.656808E-2
4/7/2025  12:44:45.647300	-9.494075E-2
4/7/2025  12:44:45.647800	-9.786995E-2
4/7/2025  12:44:45.648300	-1.001482E-1
4/7/2025  12:44:45.648800	-1.021010E-1
4/7/2025  12:44:45.649300	-1.157706E-1
4/7/2025  12:44:45.649800	-1.235818E-1
4/7/2025  12:44:45.650300	-1.076339E-1
4/7/2025  12:44:45.650800	-1.307420E-1
4/7/2025  12:44:45.651300	-1.265110E-1
4/7/2025  12:44:45.651800	-1.222799E-1
4/7/2025  12:44:45.652300	-1.248837E-1
4/7/2025  12:44:45.652800	-1.362750E-1
4/7/2025  12:44:45.653300	-1.339967E-1
4/7/2025  12:44:45.653800	-1.395296E-1
4/7/2025  12:44:45.654300	-1.414824E-1
4/7/2025  12:44:45.654800	-1.385532E-1
4/7/2025  12:44:45.655300	-1.418079E-1
4/7/2025  12:44:45.655800	-1.427843E-1
4/7/2025  12:44:45.656300	-1.473408E-1
4/7/2025  12:44:45.656800	-1.313930E-1
4/7/2025  12:44:45.657300	-1.294402E-1
4/7/2025  12:44:45.657800	-1.294402E-1
4/7/2025  12:44:45.658300	-1.278128E-1
4/7/2025  12:44:45.658800	-1.278128E-1
4/7/2025  12:44:45.659300	-1.206526E-1
4/7/2025  12:44:45.659800	-1.235818E-1
4/7/2025  12:44:45.660300	-1.177234E-1
4/7/2025  12:44:45.660800	-1.112141E-1
4/7/2025  12:44:45.661300	-1.079594E-1
4/7/2025  12:44:45.661800	-1.021010E-1
4/7/2025  12:44:45.662300	-9.494075E-2
4/7/2025  12:44:45.662800	-1.001482E-1
4/7/2025  12:44:45.663300	-8.875689E-2
4/7/2025  12:44:45.663800	-9.201155E-2
4/7/2025  12:44:45.664300	-9.168609E-2
4/7/2025  12:44:45.664800	-1.073085E-1
4/7/2025  12:44:45.665300	-9.298795E-2
4/7/2025  12:44:45.665800	-9.852088E-2
4/7/2025  12:44:45.666300	-9.624261E-2
4/7/2025  12:44:45.666800	-9.982274E-2
4/7/2025  12:44:45.667300	-1.063321E-1
4/7/2025  12:44:45.667800	-1.063321E-1
4/7/2025  12:44:45.668300	-1.144687E-1
4/7/2025  12:44:45.668800	-1.180489E-1
4/7/2025  12:44:45.669300	-1.200017E-1
4/7/2025  12:44:45.669800	-1.186998E-1
4/7/2025  12:44:45.670300	-1.229309E-1
4/7/2025  12:44:45.670800	-1.268364E-1
4/7/2025  12:44:45.671300	-1.434352E-1
4/7/2025  12:44:45.671800	-1.339967E-1
4/7/2025  12:44:45.672300	-1.421334E-1
4/7/2025  12:44:45.672800	-1.486427E-1
4/7/2025  12:44:45.673300	-1.577558E-1
4/7/2025  12:44:45.673800	-1.522228E-1
4/7/2025  12:44:45.674300	-1.512464E-1
4/7/2025  12:44:45.674800	-1.505955E-1
4/7/2025  12:44:45.675300	-1.509210E-1
4/7/2025  12:44:45.675800	-1.496191E-1
4/7/2025  12:44:45.676300	-1.437607E-1
4/7/2025  12:44:45.676800	-1.444116E-1
4/7/2025  12:44:45.677300	-1.405060E-1
4/7/2025  12:44:45.677800	-1.323694E-1
4/7/2025  12:44:45.678300	-1.362750E-1
4/7/2025  12:44:45.678800	-1.320439E-1
4/7/2025  12:44:45.679300	-1.333458E-1
4/7/2025  12:44:45.679800	-1.317184E-1
4/7/2025  12:44:45.680300	-1.252091E-1
4/7/2025  12:44:45.680800	-1.213035E-1
4/7/2025  12:44:45.681300	-1.157706E-1
4/7/2025  12:44:45.681800	-1.141433E-1
4/7/2025  12:44:45.682300	-1.079594E-1
4/7/2025  12:44:45.682800	-1.073085E-1
4/7/2025  12:44:45.683300	-1.014501E-1
4/7/2025  12:44:45.683800	-9.331342E-2
4/7/2025  12:44:45.684300	-9.656808E-2
4/7/2025  12:44:45.684800	-9.331342E-2
4/7/2025  12:44:45.685300	-9.526622E-2
4/7/2025  12:44:45.685800	-9.233702E-2
4/7/2025  12:44:45.686300	-9.917181E-2
4/7/2025  12:44:45.686800	-9.949728E-2
4/7/2025  12:44:45.687300	-1.001482E-1
4/7/2025  12:44:45.687800	-1.027519E-1
4/7/2025  12:44:45.688300	-1.115395E-1
4/7/2025  12:44:45.688800	-1.115395E-1
4/7/2025  12:44:45.689300	-1.115395E-1
4/7/2025  12:44:45.689800	-1.160961E-1
4/7/2025  12:44:45.690300	-1.183743E-1
4/7/2025  12:44:45.690800	-1.219545E-1
4/7/2025  12:44:45.691300	-1.219545E-1
4/7/2025  12:44:45.691800	-1.300911E-1
4/7/2025  12:44:45.692300	-1.366004E-1
4/7/2025  12:44:45.692800	-1.359495E-1
4/7/2025  12:44:45.693300	-1.392042E-1
4/7/2025  12:44:45.693800	-1.434352E-1
4/7/2025  12:44:45.694300	-1.369259E-1
4/7/2025  12:44:45.694800	-1.535247E-1
4/7/2025  12:44:45.695300	-1.457135E-1
4/7/2025  12:44:45.695800	-1.447371E-1
4/7/2025  12:44:45.696300	-1.388787E-1
4/7/2025  12:44:45.696800	-1.401806E-1
4/7/2025  12:44:45.697300	-1.346476E-1
4/7/2025  12:44:45.697800	-1.359495E-1
4/7/2025  12:44:45.698300	-1.330203E-1
4/7/2025  12:44:45.698800	-1.356240E-1
4/7/2025  12:44:45.699300	-1.229309E-1
4/7/2025  12:44:45.699800	-1.222799E-1
4/7/2025  12:44:45.700300	-1.183743E-1
4/7/2025  12:44:45.700800	-1.157706E-1
4/7/2025  12:44:45.701300	-1.125159E-1
4/7/2025  12:44:45.701800	-1.050302E-1
4/7/2025  12:44:45.702300	-9.103515E-2
4/7/2025  12:44:45.702800	-8.973329E-2
4/7/2025  12:44:45.703300	-8.940782E-2
4/7/2025  12:44:45.703800	-9.559168E-2
4/7/2025  12:44:45.704300	-8.680409E-2
4/7/2025  12:44:45.704800	-9.884635E-2
4/7/2025  12:44:45.705300	-9.266249E-2
4/7/2025  12:44:45.705800	-8.127116E-2
4/7/2025  12:44:45.706300	-9.721901E-2
4/7/2025  12:44:45.706800	-9.656808E-2
4/7/2025  12:44:45.707300	-9.982274E-2
4/7/2025  12:44:45.707800	-9.852088E-2
4/7/2025  12:44:45.708300	-9.721901E-2
4/7/2025  12:44:45.708800	-1.037283E-1
4/7/2025  12:44:45.709300	-1.069830E-1
4/7/2025  12:44:45.709800	-1.095867E-1
4/7/2025  12:44:45.710300	-1.086103E-1
4/7/2025  12:44:45.710800	-1.108886E-1
4/7/2025  12:44:45.711300	-1.170725E-1
4/7/2025  12:44:45.711800	-1.369259E-1
4/7/2025  12:44:45.712300	-1.372514E-1
4/7/2025  12:44:45.712800	-1.297656E-1
4/7/2025  12:44:45.713300	-1.437607E-1
4/7/2025  12:44:45.713800	-1.379023E-1
4/7/2025  12:44:45.714300	-1.424588E-1
4/7/2025  12:44:45.714800	-1.424588E-1
4/7/2025  12:44:45.715300	-1.401806E-1
4/7/2025  12:44:45.715800	-1.375768E-1
4/7/2025  12:44:45.716300	-1.343222E-1
4/7/2025  12:44:45.716800	-1.284638E-1
4/7/2025  12:44:45.717300	-1.235818E-1
4/7/2025  12:44:45.717800	-1.226054E-1
4/7/2025  12:44:45.718300	-1.203271E-1
4/7/2025  12:44:45.718800	-1.154451E-1
4/7/2025  12:44:45.719300	-1.154451E-1
4/7/2025  12:44:45.719800	-1.112141E-1
4/7/2025  12:44:45.720300	-1.121905E-1
4/7/2025  12:44:45.720800	-1.001482E-1
4/7/2025  12:44:45.721300	-9.136062E-2
4/7/2025  12:44:45.721800	-8.550223E-2
4/7/2025  12:44:45.722300	-7.996930E-2
4/7/2025  12:44:45.722800	-7.671463E-2
4/7/2025  12:44:45.723300	-7.313451E-2
4/7/2025  12:44:45.723800	-7.085624E-2
4/7/2025  12:44:45.724300	-7.150717E-2
4/7/2025  12:44:45.724800	-7.899290E-2
4/7/2025  12:44:45.725300	-7.248357E-2
4/7/2025  12:44:45.725800	-7.150717E-2
4/7/2025  12:44:45.726300	-7.834197E-2
4/7/2025  12:44:45.726800	-7.704010E-2
4/7/2025  12:44:45.727300	-6.922891E-2
4/7/2025  12:44:45.727800	-8.517676E-2
4/7/2025  12:44:45.728300	-8.973329E-2
4/7/2025  12:44:45.728800	-9.233702E-2
4/7/2025  12:44:45.729300	-1.027519E-1
4/7/2025  12:44:45.729800	-9.233702E-2
4/7/2025  12:44:45.730300	-1.001482E-1
4/7/2025  12:44:45.730800	-1.069830E-1
4/7/2025  12:44:45.731300	-1.164215E-1
4/7/2025  12:44:45.731800	-1.121905E-1
4/7/2025  12:44:45.732300	-1.154451E-1
4/7/2025  12:44:45.732800	-1.245582E-1
4/7/2025  12:44:45.733300	-1.333458E-1
4/7/2025  12:44:45.733800	-1.281383E-1
4/7/2025  12:44:45.734300	-1.336712E-1
4/7/2025  12:44:45.734800	-1.268364E-1
4/7/2025  12:44:45.735300	-1.300911E-1
4/7/2025  12:44:45.735800	-1.271619E-1
4/7/2025  12:44:45.736300	-1.323694E-1
4/7/2025  12:44:45.736800	-1.255346E-1
4/7/2025  12:44:45.737300	-1.222799E-1
4/7/2025  12:44:45.737800	-1.248837E-1
4/7/2025  12:44:45.738300	-1.186998E-1
4/7/2025  12:44:45.738800	-1.167470E-1
4/7/2025  12:44:45.739300	-1.134923E-1
4/7/2025  12:44:45.739800	-1.118650E-1
4/7/2025  12:44:45.740300	-1.102377E-1
4/7/2025  12:44:45.740800	-1.095867E-1
4/7/2025  12:44:45.741300	-1.108886E-1
4/7/2025  12:44:45.741800	-1.040538E-1
4/7/2025  12:44:45.742300	-8.647862E-2
4/7/2025  12:44:45.742800	-9.461528E-2
4/7/2025  12:44:45.743300	-9.136062E-2
4/7/2025  12:44:45.743800	-1.017755E-1
4/7/2025  12:44:45.744300	-9.168609E-2
4/7/2025  12:44:45.744800	-9.917181E-2
4/7/2025  12:44:45.745300	-8.940782E-2
4/7/2025  12:44:45.745800	-9.331342E-2
4/7/2025  12:44:45.746300	-9.949728E-2
4/7/2025  12:44:45.746800	-1.001482E-1
4/7/2025  12:44:45.747300	-1.079594E-1
4/7/2025  12:44:45.747800	-1.043793E-1
4/7/2025  12:44:45.748300	-1.011246E-1
4/7/2025  12:44:45.748800	-1.105631E-1
4/7/2025  12:44:45.749300	-1.125159E-1
4/7/2025  12:44:45.749800	-1.060066E-1
4/7/2025  12:44:45.750300	-1.105631E-1
4/7/2025  12:44:45.750800	-1.213035E-1
4/7/2025  12:44:45.751300	-1.281383E-1
4/7/2025  12:44:45.751800	-1.349731E-1
4/7/2025  12:44:45.752300	-1.369259E-1
4/7/2025  12:44:45.752800	-1.535247E-1
4/7/2025  12:44:45.753300	-1.460390E-1
4/7/2025  12:44:45.753800	-1.499446E-1
4/7/2025  12:44:45.754300	-1.411570E-1
4/7/2025  12:44:45.754800	-1.440862E-1
4/7/2025  12:44:45.755300	-1.418079E-1
4/7/2025  12:44:45.755800	-1.476663E-1
4/7/2025  12:44:45.756300	-1.437607E-1
4/7/2025  12:44:45.756800	-1.411570E-1
4/7/2025  12:44:45.757300	-1.418079E-1
4/7/2025  12:44:45.757800	-1.388787E-1
4/7/2025  12:44:45.758300	-1.304166E-1
4/7/2025  12:44:45.758800	-1.297656E-1
4/7/2025  12:44:45.759300	-1.291147E-1
4/7/2025  12:44:45.759800	-1.297656E-1
4/7/2025  12:44:45.760300	-1.242327E-1
4/7/2025  12:44:45.760800	-1.196762E-1
4/7/2025  12:44:45.761300	-1.121905E-1
4/7/2025  12:44:45.761800	-1.134923E-1
4/7/2025  12:44:45.762300	-1.089358E-1
4/7/2025  12:44:45.762800	-9.754448E-2
4/7/2025  12:44:45.763300	-9.786995E-2
4/7/2025  12:44:45.763800	-8.647862E-2
4/7/2025  12:44:45.764300	-1.095867E-1
4/7/2025  12:44:45.764800	-9.396435E-2
4/7/2025  12:44:45.765300	-9.526622E-2
4/7/2025  12:44:45.765800	-9.591715E-2
4/7/2025  12:44:45.766300	-1.021010E-1
4/7/2025  12:44:45.766800	-1.043793E-1
4/7/2025  12:44:45.767300	-1.089358E-1
4/7/2025  12:44:45.767800	-1.160961E-1
4/7/2025  12:44:45.768300	-1.121905E-1
4/7/2025  12:44:45.768800	-1.167470E-1
4/7/2025  12:44:45.769300	-1.219545E-1
4/7/2025  12:44:45.769800	-1.222799E-1
4/7/2025  12:44:45.770300	-1.268364E-1
4/7/2025  12:44:45.770800	-1.421334E-1
4/7/2025  12:44:45.771300	-1.333458E-1
4/7/2025  12:44:45.771800	-1.382278E-1
4/7/2025  12:44:45.772300	-1.382278E-1
4/7/2025  12:44:45.772800	-1.509210E-1
4/7/2025  12:44:45.773300	-1.479918E-1
4/7/2025  12:44:45.773800	-1.496191E-1
4/7/2025  12:44:45.774300	-1.470154E-1
4/7/2025  12:44:45.774800	-1.561284E-1
4/7/2025  12:44:45.775300	-1.499446E-1
4/7/2025  12:44:45.775800	-1.479918E-1
4/7/2025  12:44:45.776300	-1.440862E-1
4/7/2025  12:44:45.776800	-1.483172E-1
4/7/2025  12:44:45.777300	-1.379023E-1
4/7/2025  12:44:45.777800	-1.307420E-1
4/7/2025  12:44:45.778300	-1.245582E-1
4/7/2025  12:44:45.778800	-1.222799E-1
4/7/2025  12:44:45.779300	-1.222799E-1
4/7/2025  12:44:45.779800	-1.200017E-1
4/7/2025  12:44:45.780300	-1.170725E-1
4/7/2025  12:44:45.780800	-1.131669E-1
4/7/2025  12:44:45.781300	-1.086103E-1
4/7/2025  12:44:45.781800	-1.034029E-1
4/7/2025  12:44:45.782300	-9.494075E-2
4/7/2025  12:44:45.782800	-8.908236E-2
4/7/2025  12:44:45.783300	-8.387489E-2
4/7/2025  12:44:45.783800	-8.029476E-2
4/7/2025  12:44:45.784300	-9.461528E-2
4/7/2025  12:44:45.784800	-8.387489E-2
4/7/2025  12:44:45.785300	-8.973329E-2
4/7/2025  12:44:45.785800	-8.582769E-2
4/7/2025  12:44:45.786300	-8.908236E-2
4/7/2025  12:44:45.786800	-9.136062E-2
4/7/2025  12:44:45.787300	-9.070969E-2
4/7/2025  12:44:45.787800	-9.494075E-2
4/7/2025  12:44:45.788300	-1.017755E-1
4/7/2025  12:44:45.788800	-1.043793E-1
4/7/2025  12:44:45.789300	-1.095867E-1
4/7/2025  12:44:45.789800	-1.014501E-1
4/7/2025  12:44:45.790300	-1.128414E-1
4/7/2025  12:44:45.790800	-1.200017E-1
4/7/2025  12:44:45.791300	-1.151197E-1
4/7/2025  12:44:45.791800	-1.206526E-1
4/7/2025  12:44:45.792300	-1.203271E-1
4/7/2025  12:44:45.792800	-1.424588E-1
4/7/2025  12:44:45.793300	-1.379023E-1
4/7/2025  12:44:45.793800	-1.382278E-1
4/7/2025  12:44:45.794300	-1.359495E-1
4/7/2025  12:44:45.794800	-1.379023E-1
4/7/2025  12:44:45.795300	-1.372514E-1
4/7/2025  12:44:45.795800	-1.392042E-1
4/7/2025  12:44:45.796300	-1.281383E-1
4/7/2025  12:44:45.796800	-1.242327E-1
4/7/2025  12:44:45.797300	-1.255346E-1
4/7/2025  12:44:45.797800	-1.274874E-1
4/7/2025  12:44:45.798300	-1.196762E-1
4/7/2025  12:44:45.798800	-1.160961E-1
4/7/2025  12:44:45.799300	-1.125159E-1
4/7/2025  12:44:45.799800	-1.121905E-1
4/7/2025  12:44:45.800300	-1.105631E-1
4/7/2025  12:44:45.800800	-9.852088E-2
4/7/2025  12:44:45.801300	-9.786995E-2
4/7/2025  12:44:45.801800	-9.396435E-2
4/7/2025  12:44:45.802300	-8.647862E-2
4/7/2025  12:44:45.802800	-8.615316E-2
4/7/2025  12:44:45.803300	-8.094570E-2
4/7/2025  12:44:45.803800	-8.029476E-2
4/7/2025  12:44:45.804300	-7.931837E-2
4/7/2025  12:44:45.804800	-8.680409E-2
4/7/2025  12:44:45.805300	-9.136062E-2
4/7/2025  12:44:45.805800	-8.517676E-2
4/7/2025  12:44:45.806300	-8.485129E-2
4/7/2025  12:44:45.806800	-8.582769E-2
4/7/2025  12:44:45.807300	-9.396435E-2
4/7/2025  12:44:45.807800	-9.298795E-2
4/7/2025  12:44:45.808300	-9.754448E-2
4/7/2025  12:44:45.808800	-1.007991E-1
4/7/2025  12:44:45.809300	-1.004737E-1
4/7/2025  12:44:45.809800	-1.050302E-1
4/7/2025  12:44:45.810300	-1.027519E-1
4/7/2025  12:44:45.810800	-1.021010E-1
4/7/2025  12:44:45.811300	-1.066575E-1
4/7/2025  12:44:45.811800	-1.017755E-1
4/7/2025  12:44:45.812300	-1.186998E-1
4/7/2025  12:44:45.812800	-1.271619E-1
4/7/2025  12:44:45.813300	-1.310675E-1
4/7/2025  12:44:45.813800	-1.304166E-1
4/7/2025  12:44:45.814300	-1.294402E-1
4/7/2025  12:44:45.814800	-1.346476E-1
4/7/2025  12:44:45.815300	-1.366004E-1
4/7/2025  12:44:45.815800	-1.252091E-1
4/7/2025  12:44:45.816300	-1.222799E-1
4/7/2025  12:44:45.816800	-1.147942E-1
4/7/2025  12:44:45.817300	-1.193507E-1
4/7/2025  12:44:45.817800	-1.154451E-1
4/7/2025  12:44:45.818300	-1.144687E-1
4/7/2025  12:44:45.818800	-1.073085E-1
4/7/2025  12:44:45.819300	-1.138178E-1
4/7/2025  12:44:45.819800	-1.030774E-1
4/7/2025  12:44:45.820300	-1.007991E-1
4/7/2025  12:44:45.820800	-9.201155E-2
4/7/2025  12:44:45.821300	-8.582769E-2
4/7/2025  12:44:45.821800	-8.094570E-2
4/7/2025  12:44:45.822300	-7.931837E-2
4/7/2025  12:44:45.822800	-6.857798E-2
4/7/2025  12:44:45.823300	-6.629971E-2
4/7/2025  12:44:45.823800	-6.141772E-2
4/7/2025  12:44:45.824300	-6.369598E-2
4/7/2025  12:44:45.824800	-5.881399E-2
4/7/2025  12:44:45.825300	-6.109225E-2
4/7/2025  12:44:45.825800	-6.011585E-2
4/7/2025  12:44:45.826300	-7.085624E-2
4/7/2025  12:44:45.826800	-6.532331E-2
4/7/2025  12:44:45.827300	-6.955438E-2
4/7/2025  12:44:45.827800	-7.053077E-2
4/7/2025  12:44:45.828300	-7.085624E-2
4/7/2025  12:44:45.828800	-7.573824E-2
4/7/2025  12:44:45.829300	-7.964383E-2
4/7/2025  12:44:45.829800	-8.127116E-2
4/7/2025  12:44:45.830300	-7.345997E-2
4/7/2025  12:44:45.830800	-8.452583E-2
4/7/2025  12:44:45.831300	-9.298795E-2
4/7/2025  12:44:45.831800	-8.582769E-2
4/7/2025  12:44:45.832300	-9.917181E-2
4/7/2025  12:44:45.832800	-9.949728E-2
4/7/2025  12:44:45.833300	-9.136062E-2
4/7/2025  12:44:45.833800	-1.134923E-1
4/7/2025  12:44:45.834300	-1.050302E-1
4/7/2025  12:44:45.834800	-1.086103E-1
4/7/2025  12:44:45.835300	-1.073085E-1
4/7/2025  12:44:45.835800	-1.004737E-1
4/7/2025  12:44:45.836300	-1.004737E-1
4/7/2025  12:44:45.836800	-9.721901E-2
4/7/2025  12:44:45.837300	-9.559168E-2
4/7/2025  12:44:45.837800	-9.038422E-2
4/7/2025  12:44:45.838300	-8.615316E-2
4/7/2025  12:44:45.838800	-8.224756E-2
4/7/2025  12:44:45.839300	-8.029476E-2
4/7/2025  12:44:45.839800	-7.378544E-2
4/7/2025  12:44:45.840300	-6.825251E-2
4/7/2025  12:44:45.840800	-6.564878E-2
4/7/2025  12:44:45.841300	-6.629971E-2
4/7/2025  12:44:45.841800	-6.044132E-2
4/7/2025  12:44:45.842300	-5.718666E-2
4/7/2025  12:44:45.842800	-4.384254E-2
4/7/2025  12:44:45.843300	-4.188974E-2
4/7/2025  12:44:45.843800	-3.538041E-2
4/7/2025  12:44:45.844300	-3.212575E-2
4/7/2025  12:44:45.844800	-2.691829E-2
4/7/2025  12:44:45.845300	-3.114935E-2
4/7/2025  12:44:45.845800	-3.928601E-2
4/7/2025  12:44:45.846300	-3.993694E-2
4/7/2025  12:44:45.846800	-3.798414E-2
4/7/2025  12:44:45.847300	-4.644627E-2
4/7/2025  12:44:45.847800	-4.286614E-2
4/7/2025  12:44:45.848300	-4.709720E-2
4/7/2025  12:44:45.848800	-4.872453E-2
4/7/2025  12:44:45.849300	-4.286614E-2
4/7/2025  12:44:45.849800	-4.091334E-2
4/7/2025  12:44:45.850300	-4.872453E-2
4/7/2025  12:44:45.850800	-4.905000E-2
4/7/2025  12:44:45.851300	-5.555932E-2
4/7/2025  12:44:45.851800	-5.751212E-2
4/7/2025  12:44:45.852300	-7.118171E-2
4/7/2025  12:44:45.852800	-6.890344E-2
4/7/2025  12:44:45.853300	-6.564878E-2
4/7/2025  12:44:45.853800	-7.931837E-2
4/7/2025  12:44:45.854300	-7.378544E-2
4/7/2025  12:44:45.854800	-6.727611E-2
4/7/2025  12:44:45.855300	-6.955438E-2
4/7/2025  12:44:45.855800	-6.597425E-2
4/7/2025  12:44:45.856300	-6.174318E-2
4/7/2025  12:44:45.856800	-5.881399E-2
4/7/2025  12:44:45.857300	-5.718666E-2
4/7/2025  12:44:45.857800	-5.523386E-2
4/7/2025  12:44:45.858300	-5.035186E-2
4/7/2025  12:44:45.858800	-4.612080E-2
4/7/2025  12:44:45.859300	-4.351707E-2
4/7/2025  12:44:45.859800	-4.774813E-2
4/7/2025  12:44:45.860300	-4.123880E-2
4/7/2025  12:44:45.860800	-3.668228E-2
4/7/2025  12:44:45.861300	-4.156427E-2
4/7/2025  12:44:45.861800	-3.603134E-2
4/7/2025  12:44:45.862300	-2.138536E-2
4/7/2025  12:44:45.862800	-1.097044E-2
4/7/2025  12:44:45.863300	-1.389963E-2
4/7/2025  12:44:45.863800	-3.159244E-3
4/7/2025  12:44:45.864300	-1.552696E-2
4/7/2025  12:44:45.864800	-1.813070E-2
4/7/2025  12:44:45.865300	-1.552696E-2
4/7/2025  12:44:45.865800	-1.682883E-2
4/7/2025  12:44:45.866300	-2.008349E-2
4/7/2025  12:44:45.866800	-2.333816E-2
4/7/2025  12:44:45.867300	-2.594189E-2
4/7/2025  12:44:45.867800	-2.626735E-2
4/7/2025  12:44:45.868300	-2.952202E-2
4/7/2025  12:44:45.868800	-2.398909E-2
4/7/2025  12:44:45.869300	-3.765868E-2
4/7/2025  12:44:45.869800	-4.188974E-2
4/7/2025  12:44:45.870300	-4.612080E-2
4/7/2025  12:44:45.870800	-3.928601E-2
4/7/2025  12:44:45.871300	-4.970093E-2
4/7/2025  12:44:45.871800	-6.597425E-2
4/7/2025  12:44:45.872300	-5.686119E-2
4/7/2025  12:44:45.872800	-6.629971E-2
4/7/2025  12:44:45.873300	-6.109225E-2
4/7/2025  12:44:45.873800	-6.076678E-2
4/7/2025  12:44:45.874300	-7.150717E-2
4/7/2025  12:44:45.874800	-8.127116E-2
4/7/2025  12:44:45.875300	-6.890344E-2
4/7/2025  12:44:45.875800	-7.964383E-2
4/7/2025  12:44:45.876300	-6.727611E-2
4/7/2025  12:44:45.876800	-6.109225E-2
4/7/2025  12:44:45.877300	-6.532331E-2
4/7/2025  12:44:45.877800	-6.564878E-2
4/7/2025  12:44:45.878300	-5.588479E-2
4/7/2025  12:44:45.878800	-5.588479E-2
4/7/2025  12:44:45.879300	-5.588479E-2
4/7/2025  12:44:45.879800	-5.686119E-2
4/7/2025  12:44:45.880300	-5.295559E-2
4/7/2025  12:44:45.880800	-4.644627E-2
4/7/2025  12:44:45.881300	-4.807360E-2
4/7/2025  12:44:45.881800	-4.546987E-2
4/7/2025  12:44:45.882300	-3.961147E-2
4/7/2025  12:44:45.882800	-5.035186E-2
4/7/2025  12:44:45.883300	-3.733321E-2
4/7/2025  12:44:45.883800	-3.082388E-2
4/7/2025  12:44:45.884300	-4.384254E-2
4/7/2025  12:44:45.884800	-2.984748E-2
4/7/2025  12:44:45.885300	-3.700774E-2
4/7/2025  12:44:45.885800	-4.156427E-2
4/7/2025  12:44:45.886300	-4.677173E-2
4/7/2025  12:44:45.886800	-4.807360E-2
4/7/2025  12:44:45.887300	-5.263013E-2
4/7/2025  12:44:45.887800	-5.360653E-2
4/7/2025  12:44:45.888300	-5.686119E-2
4/7/2025  12:44:45.888800	-6.337052E-2
4/7/2025  12:44:45.889300	-7.085624E-2
4/7/2025  12:44:45.889800	-6.987984E-2
4/7/2025  12:44:45.890300	-8.908236E-2
4/7/2025  12:44:45.890800	-7.866743E-2
4/7/2025  12:44:45.891300	-8.745502E-2
4/7/2025  12:44:45.891800	-9.233702E-2
4/7/2025  12:44:45.892300	-8.875689E-2
4/7/2025  12:44:45.892800	-9.168609E-2
4/7/2025  12:44:45.893300	-1.050302E-1
4/7/2025  12:44:45.893800	-1.086103E-1
4/7/2025  12:44:45.894300	-1.258601E-1
4/7/2025  12:44:45.894800	-1.092613E-1
4/7/2025  12:44:45.895300	-1.177234E-1
4/7/2025  12:44:45.895800	-1.147942E-1
4/7/2025  12:44:45.896300	-1.115395E-1
4/7/2025  12:44:45.896800	-1.138178E-1
4/7/2025  12:44:45.897300	-1.060066E-1
4/7/2025  12:44:45.897800	-1.066575E-1
4/7/2025  12:44:45.898300	-1.034029E-1
4/7/2025  12:44:45.898800	-1.073085E-1
4/7/2025  12:44:45.899300	-9.949728E-2
4/7/2025  12:44:45.899800	-9.786995E-2
4/7/2025  12:44:45.900300	-9.689355E-2
4/7/2025  12:44:45.900800	-9.233702E-2
4/7/2025  12:44:45.901300	-8.712956E-2
4/7/2025  12:44:45.901800	-8.354943E-2
4/7/2025  12:44:45.902300	-7.541277E-2
4/7/2025  12:44:45.902800	-7.443637E-2
4/7/2025  12:44:45.903300	-7.313451E-2
4/7/2025  12:44:45.903800	-8.289850E-2
4/7/2025  12:44:45.904300	-7.085624E-2
4/7/2025  12:44:45.904800	-7.899290E-2
4/7/2025  12:44:45.905300	-7.476184E-2
4/7/2025  12:44:45.905800	-7.573824E-2
4/7/2025  12:44:45.906300	-7.931837E-2
4/7/2025  12:44:45.906800	-8.094570E-2
4/7/2025  12:44:45.907300	-8.354943E-2
4/7/2025  12:44:45.907800	-8.908236E-2
4/7/2025  12:44:45.908300	-9.396435E-2
4/7/2025  12:44:45.908800	-9.982274E-2
4/7/2025  12:44:45.909300	-1.034029E-1
4/7/2025  12:44:45.909800	-1.001482E-1
4/7/2025  12:44:45.910300	-1.125159E-1
4/7/2025  12:44:45.910800	-1.268364E-1
4/7/2025  12:44:45.911300	-1.307420E-1
4/7/2025  12:44:45.911800	-1.206526E-1
4/7/2025  12:44:45.912300	-1.346476E-1
4/7/2025  12:44:45.912800	-1.356240E-1
4/7/2025  12:44:45.913300	-1.366004E-1
4/7/2025  12:44:45.913800	-1.307420E-1
4/7/2025  12:44:45.914300	-1.408315E-1
4/7/2025  12:44:45.914800	-1.505955E-1
4/7/2025  12:44:45.915300	-1.395296E-1
4/7/2025  12:44:45.915800	-1.392042E-1
4/7/2025  12:44:45.916300	-1.333458E-1
4/7/2025  12:44:45.916800	-1.287892E-1
4/7/2025  12:44:45.917300	-1.359495E-1
4/7/2025  12:44:45.917800	-1.300911E-1
4/7/2025  12:44:45.918300	-1.193507E-1
4/7/2025  12:44:45.918800	-1.209781E-1
4/7/2025  12:44:45.919300	-1.209781E-1
4/7/2025  12:44:45.919800	-1.200017E-1
4/7/2025  12:44:45.920300	-1.147942E-1
4/7/2025  12:44:45.920800	-1.082849E-1
4/7/2025  12:44:45.921300	-1.063321E-1
4/7/2025  12:44:45.921800	-1.030774E-1
4/7/2025  12:44:45.922300	-9.559168E-2
4/7/2025  12:44:45.922800	-9.656808E-2
4/7/2025  12:44:45.923300	-9.070969E-2
4/7/2025  12:44:45.923800	-8.289850E-2
4/7/2025  12:44:45.924300	-9.005875E-2
4/7/2025  12:44:45.924800	-8.712956E-2
4/7/2025  12:44:45.925300	-8.810596E-2
4/7/2025  12:44:45.925800	-8.940782E-2
4/7/2025  12:44:45.926300	-9.461528E-2
4/7/2025  12:44:45.926800	-9.201155E-2
4/7/2025  12:44:45.927300	-9.754448E-2
4/7/2025  12:44:45.927800	-1.007991E-1
4/7/2025  12:44:45.928300	-1.037283E-1
4/7/2025  12:44:45.928800	-1.076339E-1
4/7/2025  12:44:45.929300	-1.105631E-1
4/7/2025  12:44:45.929800	-1.060066E-1
4/7/2025  12:44:45.930300	-1.089358E-1
4/7/2025  12:44:45.930800	-1.099122E-1
4/7/2025  12:44:45.931300	-1.125159E-1
4/7/2025  12:44:45.931800	-1.216290E-1
4/7/2025  12:44:45.932300	-1.447371E-1
4/7/2025  12:44:45.932800	-1.437607E-1
4/7/2025  12:44:45.933300	-1.339967E-1
4/7/2025  12:44:45.933800	-1.362750E-1
4/7/2025  12:44:45.934300	-1.330203E-1
4/7/2025  12:44:45.934800	-1.388787E-1
4/7/2025  12:44:45.935300	-1.401806E-1
4/7/2025  12:44:45.935800	-1.320439E-1
4/7/2025  12:44:45.936300	-1.291147E-1
4/7/2025  12:44:45.936800	-1.248837E-1
4/7/2025  12:44:45.937300	-1.284638E-1
4/7/2025  12:44:45.937800	-1.245582E-1
4/7/2025  12:44:45.938300	-1.186998E-1
4/7/2025  12:44:45.938800	-1.164215E-1
4/7/2025  12:44:45.939300	-1.131669E-1
4/7/2025  12:44:45.939800	-1.134923E-1
4/7/2025  12:44:45.940300	-1.047047E-1
4/7/2025  12:44:45.940800	-1.017755E-1
4/7/2025  12:44:45.941300	-1.056811E-1
4/7/2025  12:44:45.941800	-1.027519E-1
4/7/2025  12:44:45.942300	-1.115395E-1
4/7/2025  12:44:45.942800	-8.615316E-2
4/7/2025  12:44:45.943300	-9.201155E-2
4/7/2025  12:44:45.943800	-1.001482E-1
4/7/2025  12:44:45.944300	-1.007991E-1
4/7/2025  12:44:45.944800	-9.819541E-2
4/7/2025  12:44:45.945300	-9.884635E-2
4/7/2025  12:44:45.945800	-1.069830E-1
4/7/2025  12:44:45.946300	-1.053557E-1
4/7/2025  12:44:45.946800	-1.232563E-1
4/7/2025  12:44:45.947300	-1.317184E-1
4/7/2025  12:44:45.947800	-1.398551E-1
4/7/2025  12:44:45.948300	-1.541756E-1
4/7/2025  12:44:45.948800	-1.616613E-1
4/7/2025  12:44:45.949300	-1.714253E-1
4/7/2025  12:44:45.949800	-1.857459E-1
4/7/2025  12:44:45.950300	-1.961608E-1
4/7/2025  12:44:45.950800	-1.964862E-1
4/7/2025  12:44:45.951300	-2.166652E-1
4/7/2025  12:44:45.951800	-2.147124E-1
4/7/2025  12:44:45.952300	-2.335894E-1
4/7/2025  12:44:45.952800	-2.414006E-1
4/7/2025  12:44:45.953300	-2.586503E-1
4/7/2025  12:44:45.953800	-2.586503E-1
4/7/2025  12:44:45.954300	-2.658106E-1
4/7/2025  12:44:45.954800	-2.752491E-1
4/7/2025  12:44:45.955300	-2.772019E-1
4/7/2025  12:44:45.955800	-2.807820E-1
4/7/2025  12:44:45.956300	-2.827348E-1
4/7/2025  12:44:45.956800	-2.869659E-1
4/7/2025  12:44:45.957300	-2.885932E-1
4/7/2025  12:44:45.957800	-2.895696E-1
4/7/2025  12:44:45.958300	-2.924988E-1
4/7/2025  12:44:45.958800	-2.934752E-1
4/7/2025  12:44:45.959300	-2.954280E-1
4/7/2025  12:44:45.959800	-2.938007E-1
4/7/2025  12:44:45.960300	-2.895696E-1
4/7/2025  12:44:45.960800	-2.882678E-1
4/7/2025  12:44:45.961300	-2.820839E-1
4/7/2025  12:44:45.961800	-2.762255E-1
4/7/2025  12:44:45.962300	-2.667870E-1
4/7/2025  12:44:45.962800	-2.612540E-1
4/7/2025  12:44:45.963300	-2.498627E-1
4/7/2025  12:44:45.963800	-2.427025E-1
4/7/2025  12:44:45.964300	-2.261037E-1
4/7/2025  12:44:45.964800	-2.182925E-1
4/7/2025  12:44:45.965300	-2.062502E-1
4/7/2025  12:44:45.965800	-1.968117E-1
4/7/2025  12:44:45.966300	-1.850949E-1
4/7/2025  12:44:45.966800	-1.717508E-1
4/7/2025  12:44:45.967300	-1.548266E-1
4/7/2025  12:44:45.967800	-1.326948E-1
4/7/2025  12:44:45.968300	-1.219545E-1
4/7/2025  12:44:45.968800	-9.624261E-2
4/7/2025  12:44:45.969300	-7.345997E-2
4/7/2025  12:44:45.969800	-3.049842E-2
4/7/2025  12:44:45.970300	-8.041239E-3
4/7/2025  12:44:45.970800	3.101472E-2
4/7/2025  12:44:45.971300	5.217003E-2
4/7/2025  12:44:45.971800	8.536760E-2
4/7/2025  12:44:45.972300	1.276782E-1
4/7/2025  12:44:45.972800	1.572957E-1
4/7/2025  12:44:45.973300	2.145777E-1
4/7/2025  12:44:45.973800	2.620958E-1
4/7/2025  12:44:45.974300	3.167742E-1
4/7/2025  12:44:45.974800	3.786128E-1
4/7/2025  12:44:45.975300	4.186451E-1
4/7/2025  12:44:45.975800	4.713707E-1
4/7/2025  12:44:45.976300	5.322329E-1
4/7/2025  12:44:45.976800	5.862603E-1
4/7/2025  12:44:45.977300	6.428914E-1
4/7/2025  12:44:45.977800	6.988716E-1
4/7/2025  12:44:45.978300	7.584320E-1
4/7/2025  12:44:45.978800	8.205960E-1
4/7/2025  12:44:45.979300	8.840620E-1
4/7/2025  12:44:45.979800	9.475279E-1
4/7/2025  12:44:45.980300	1.011645E+0
4/7/2025  12:44:45.980800	1.076087E+0
4/7/2025  12:44:45.981300	1.132718E+0
4/7/2025  12:44:45.981800	1.206925E+0
4/7/2025  12:44:45.982300	1.270391E+0
4/7/2025  12:44:45.982800	1.326696E+0
4/7/2025  12:44:45.983300	1.374865E+0
4/7/2025  12:44:45.983800	1.429869E+0
4/7/2025  12:44:45.984300	1.481944E+0
4/7/2025  12:44:45.984800	1.526858E+0
4/7/2025  12:44:45.985300	1.560706E+0
4/7/2025  12:44:45.985800	1.594555E+0
4/7/2025  12:44:45.986300	1.620267E+0
4/7/2025  12:44:45.986800	1.648257E+0
4/7/2025  12:44:45.987300	1.669087E+0
4/7/2025  12:44:45.987800	1.688289E+0
4/7/2025  12:44:45.988300	1.697402E+0
4/7/2025  12:44:45.988800	1.706190E+0
4/7/2025  12:44:45.989300	1.715303E+0
4/7/2025  12:44:45.989800	1.717907E+0
4/7/2025  12:44:45.990300	1.723440E+0
4/7/2025  12:44:45.990800	1.714652E+0
4/7/2025  12:44:45.991300	1.701308E+0
4/7/2025  12:44:45.991800	1.693497E+0
4/7/2025  12:44:45.992300	1.670714E+0
4/7/2025  12:44:45.992800	1.648908E+0
4/7/2025  12:44:45.993300	1.629380E+0
4/7/2025  12:44:45.993800	1.627102E+0
4/7/2025  12:44:45.994300	1.599762E+0
4/7/2025  12:44:45.994800	1.577956E+0
4/7/2025  12:44:45.995300	1.566890E+0
4/7/2025  12:44:45.995800	1.533042E+0
4/7/2025  12:44:45.996300	1.525231E+0
4/7/2025  12:44:45.996800	1.496264E+0
4/7/2025  12:44:45.997300	1.477387E+0
4/7/2025  12:44:45.997800	1.451675E+0
4/7/2025  12:44:45.998300	1.415874E+0
4/7/2025  12:44:45.998800	1.392440E+0
4/7/2025  12:44:45.999300	1.351432E+0
4/7/2025  12:44:45.999800	1.315305E+0
4/7/2025  12:44:46.000300	1.279829E+0
4/7/2025  12:44:46.000800	1.244679E+0
4/7/2025  12:44:46.001300	1.200090E+0
4/7/2025  12:44:46.001800	1.158430E+0
4/7/2025  12:44:46.002300	1.127185E+0
4/7/2025  12:44:46.002800	1.095941E+0
4/7/2025  12:44:46.003300	1.051352E+0
4/7/2025  12:44:46.003800	1.011970E+0
4/7/2025  12:44:46.004300	9.605466E-1
4/7/2025  12:44:46.004800	9.322310E-1
4/7/2025  12:44:46.005300	8.938260E-1
4/7/2025  12:44:46.005800	8.515153E-1
4/7/2025  12:44:46.006300	8.098557E-1
4/7/2025  12:44:46.006800	7.763326E-1
4/7/2025  12:44:46.007300	7.317437E-1
4/7/2025  12:44:46.007800	6.998480E-1
4/7/2025  12:44:46.008300	6.588393E-1
4/7/2025  12:44:46.008800	6.282454E-1
4/7/2025  12:44:46.009300	5.947224E-1
4/7/2025  12:44:46.009800	5.611994E-1
4/7/2025  12:44:46.010300	5.159596E-1
4/7/2025  12:44:46.010800	5.019645E-1
4/7/2025  12:44:46.011300	4.674651E-1
4/7/2025  12:44:46.011800	4.371967E-1
4/7/2025  12:44:46.012300	3.942351E-1
4/7/2025  12:44:46.012800	3.909805E-1
4/7/2025  12:44:46.013300	3.532264E-1
4/7/2025  12:44:46.013800	3.249108E-1
4/7/2025  12:44:46.014300	3.102648E-1
4/7/2025  12:44:46.014800	2.910623E-1
4/7/2025  12:44:46.015300	2.702325E-1
4/7/2025  12:44:46.015800	2.533082E-1
4/7/2025  12:44:46.016300	2.367094E-1
4/7/2025  12:44:46.016800	2.282473E-1
4/7/2025  12:44:46.017300	2.220635E-1
4/7/2025  12:44:46.017800	2.028609E-1
4/7/2025  12:44:46.018300	1.904932E-1
4/7/2025  12:44:46.018800	1.755218E-1
4/7/2025  12:44:46.019300	1.634795E-1
4/7/2025  12:44:46.019800	1.472062E-1
4/7/2025  12:44:46.020300	1.439515E-1
4/7/2025  12:44:46.020800	1.319093E-1
4/7/2025  12:44:46.021300	1.286546E-1
4/7/2025  12:44:46.021800	1.205180E-1
4/7/2025  12:44:46.022300	1.205180E-1
4/7/2025  12:44:46.022800	1.039192E-1
4/7/2025  12:44:46.023300	1.026173E-1
4/7/2025  12:44:46.023800	1.006645E-1
4/7/2025  12:44:46.024300	1.068484E-1
4/7/2025  12:44:46.024800	8.406573E-2
4/7/2025  12:44:46.025300	7.690547E-2
4/7/2025  12:44:46.025800	6.616508E-2
4/7/2025  12:44:46.026300	6.323589E-2
4/7/2025  12:44:46.026800	5.282097E-2
4/7/2025  12:44:46.027300	4.468431E-2
4/7/2025  12:44:46.027800	3.296752E-2
4/7/2025  12:44:46.028300	2.417993E-2
4/7/2025  12:44:46.028800	1.701967E-2
4/7/2025  12:44:46.029300	6.604746E-3
4/7/2025  12:44:46.029800	3.675549E-3
4/7/2025  12:44:46.030300	-7.064840E-3
4/7/2025  12:44:46.030800	-2.366362E-2
4/7/2025  12:44:46.031300	-2.236176E-2
4/7/2025  12:44:46.031800	-1.682883E-2
4/7/2025  12:44:46.032300	-4.514440E-2
4/7/2025  12:44:46.032800	-4.026241E-2
4/7/2025  12:44:46.033300	-5.165373E-2
4/7/2025  12:44:46.033800	-5.523386E-2
4/7/2025  12:44:46.034300	-6.271958E-2
4/7/2025  12:44:46.034800	-6.825251E-2
4/7/2025  12:44:46.035300	-7.248357E-2
4/7/2025  12:44:46.035800	-7.345997E-2
4/7/2025  12:44:46.036300	-6.825251E-2
4/7/2025  12:44:46.036800	-7.183264E-2
4/7/2025  12:44:46.037300	-7.573824E-2
4/7/2025  12:44:46.037800	-7.671463E-2
4/7/2025  12:44:46.038300	-7.443637E-2
4/7/2025  12:44:46.038800	-7.541277E-2
4/7/2025  12:44:46.039300	-7.899290E-2
4/7/2025  12:44:46.039800	-7.345997E-2
4/7/2025  12:44:46.040300	-7.020531E-2
4/7/2025  12:44:46.040800	-7.020531E-2
4/7/2025  12:44:46.041300	-6.629971E-2
4/7/2025  12:44:46.041800	-6.532331E-2
4/7/2025  12:44:46.042300	-6.564878E-2
4/7/2025  12:44:46.042800	-5.979039E-2
4/7/2025  12:44:46.043300	-6.011585E-2
4/7/2025  12:44:46.043800	-6.206865E-2
4/7/2025  12:44:46.044300	-6.922891E-2
4/7/2025  12:44:46.044800	-5.783759E-2
4/7/2025  12:44:46.045300	-5.328106E-2
4/7/2025  12:44:46.045800	-6.369598E-2
4/7/2025  12:44:46.046300	-6.564878E-2
4/7/2025  12:44:46.046800	-7.053077E-2
4/7/2025  12:44:46.047300	-7.476184E-2
4/7/2025  12:44:46.047800	-7.866743E-2
4/7/2025  12:44:46.048300	-8.192210E-2
4/7/2025  12:44:46.048800	-8.875689E-2
4/7/2025  12:44:46.049300	-8.582769E-2
4/7/2025  12:44:46.049800	-8.973329E-2
4/7/2025  12:44:46.050300	-1.017755E-1
4/7/2025  12:44:46.050800	-9.591715E-2
4/7/2025  12:44:46.051300	-1.063321E-1
4/7/2025  12:44:46.051800	-1.014501E-1
4/7/2025  12:44:46.052300	-1.167470E-1
4/7/2025  12:44:46.052800	-1.141433E-1
4/7/2025  12:44:46.053300	-1.248837E-1
4/7/2025  12:44:46.053800	-1.235818E-1
4/7/2025  12:44:46.054300	-1.278128E-1
4/7/2025  12:44:46.054800	-1.284638E-1
4/7/2025  12:44:46.055300	-1.265110E-1
4/7/2025  12:44:46.055800	-1.206526E-1
4/7/2025  12:44:46.056300	-1.248837E-1
4/7/2025  12:44:46.056800	-1.235818E-1
4/7/2025  12:44:46.057300	-1.216290E-1
4/7/2025  12:44:46.057800	-1.196762E-1
4/7/2025  12:44:46.058300	-1.128414E-1
4/7/2025  12:44:46.058800	-1.190253E-1
4/7/2025  12:44:46.059300	-1.177234E-1
4/7/2025  12:44:46.059800	-1.086103E-1
4/7/2025  12:44:46.060300	-1.043793E-1
4/7/2025  12:44:46.060800	-1.014501E-1
4/7/2025  12:44:46.061300	-1.017755E-1
4/7/2025  12:44:46.061800	-9.786995E-2
4/7/2025  12:44:46.062300	-7.541277E-2
4/7/2025  12:44:46.062800	-8.582769E-2
4/7/2025  12:44:46.063300	-8.550223E-2
4/7/2025  12:44:46.063800	-8.778049E-2
4/7/2025  12:44:46.064300	-7.736557E-2
4/7/2025  12:44:46.064800	-7.704010E-2
4/7/2025  12:44:46.065300	-7.508730E-2
4/7/2025  12:44:46.065800	-9.233702E-2
4/7/2025  12:44:46.066300	-8.582769E-2
4/7/2025  12:44:46.066800	-8.745502E-2
4/7/2025  12:44:46.067300	-9.070969E-2
4/7/2025  12:44:46.067800	-9.331342E-2
4/7/2025  12:44:46.068300	-9.949728E-2
4/7/2025  12:44:46.068800	-9.689355E-2
4/7/2025  12:44:46.069300	-9.819541E-2
4/7/2025  12:44:46.069800	-1.011246E-1
4/7/2025  12:44:46.070300	-1.047047E-1
4/7/2025  12:44:46.070800	-1.082849E-1
4/7/2025  12:44:46.071300	-1.167470E-1
4/7/2025  12:44:46.071800	-1.134923E-1
4/7/2025  12:44:46.072300	-1.213035E-1
4/7/2025  12:44:46.072800	-1.258601E-1
4/7/2025  12:44:46.073300	-1.297656E-1
4/7/2025  12:44:46.073800	-1.453880E-1
4/7/2025  12:44:46.074300	-1.281383E-1
4/7/2025  12:44:46.074800	-1.291147E-1
4/7/2025  12:44:46.075300	-1.320439E-1
4/7/2025  12:44:46.075800	-1.352986E-1
4/7/2025  12:44:46.076300	-1.317184E-1
4/7/2025  12:44:46.076800	-1.274874E-1
4/7/2025  12:44:46.077300	-1.278128E-1
4/7/2025  12:44:46.077800	-1.271619E-1
4/7/2025  12:44:46.078300	-1.193507E-1
4/7/2025  12:44:46.078800	-1.121905E-1
4/7/2025  12:44:46.079300	-1.154451E-1
4/7/2025  12:44:46.079800	-1.089358E-1
4/7/2025  12:44:46.080300	-1.063321E-1
4/7/2025  12:44:46.080800	-1.170725E-1
4/7/2025  12:44:46.081300	-9.852088E-2
4/7/2025  12:44:46.081800	-8.973329E-2
4/7/2025  12:44:46.082300	-8.712956E-2
4/7/2025  12:44:46.082800	-8.354943E-2
4/7/2025  12:44:46.083300	-8.517676E-2
4/7/2025  12:44:46.083800	-7.020531E-2
4/7/2025  12:44:46.084300	-7.248357E-2
4/7/2025  12:44:46.084800	-6.825251E-2
4/7/2025  12:44:46.085300	-9.233702E-2
4/7/2025  12:44:46.085800	-7.834197E-2
4/7/2025  12:44:46.086300	-8.094570E-2
4/7/2025  12:44:46.086800	-7.996930E-2
4/7/2025  12:44:46.087300	-7.899290E-2
4/7/2025  12:44:46.087800	-8.647862E-2
4/7/2025  12:44:46.088300	-8.875689E-2
4/7/2025  12:44:46.088800	-9.070969E-2
4/7/2025  12:44:46.089300	-9.005875E-2
4/7/2025  12:44:46.089800	-9.526622E-2
4/7/2025  12:44:46.090300	-1.040538E-1
4/7/2025  12:44:46.090800	-1.050302E-1
4/7/2025  12:44:46.091300	-1.196762E-1
4/7/2025  12:44:46.091800	-1.125159E-1
4/7/2025  12:44:46.092300	-1.167470E-1
4/7/2025  12:44:46.092800	-1.086103E-1
4/7/2025  12:44:46.093300	-1.186998E-1
4/7/2025  12:44:46.093800	-1.336712E-1
4/7/2025  12:44:46.094300	-1.372514E-1
4/7/2025  12:44:46.094800	-1.193507E-1
4/7/2025  12:44:46.095300	-1.239073E-1
4/7/2025  12:44:46.095800	-1.261855E-1
4/7/2025  12:44:46.096300	-1.255346E-1
4/7/2025  12:44:46.096800	-1.196762E-1
4/7/2025  12:44:46.097300	-1.157706E-1
4/7/2025  12:44:46.097800	-1.115395E-1
4/7/2025  12:44:46.098300	-1.066575E-1
4/7/2025  12:44:46.098800	-1.037283E-1
4/7/2025  12:44:46.099300	-1.001482E-1
4/7/2025  12:44:46.099800	-1.007991E-1
4/7/2025  12:44:46.100300	-9.298795E-2
4/7/2025  12:44:46.100800	-9.038422E-2
4/7/2025  12:44:46.101300	-8.875689E-2
4/7/2025  12:44:46.101800	-9.005875E-2
4/7/2025  12:44:46.102300	-7.411090E-2
4/7/2025  12:44:46.102800	-7.118171E-2
4/7/2025  12:44:46.103300	-7.085624E-2
4/7/2025  12:44:46.103800	-6.174318E-2
4/7/2025  12:44:46.104300	-6.109225E-2
4/7/2025  12:44:46.104800	-6.434691E-2
4/7/2025  12:44:46.105300	-6.695064E-2
4/7/2025  12:44:46.105800	-7.150717E-2
4/7/2025  12:44:46.106300	-6.662518E-2
4/7/2025  12:44:46.106800	-6.987984E-2
4/7/2025  12:44:46.107300	-7.248357E-2
4/7/2025  12:44:46.107800	-7.313451E-2
4/7/2025  12:44:46.108300	-7.476184E-2
4/7/2025  12:44:46.108800	-6.695064E-2
4/7/2025  12:44:46.109300	-8.029476E-2
4/7/2025  12:44:46.109800	-8.289850E-2
4/7/2025  12:44:46.110300	-8.940782E-2
4/7/2025  12:44:46.110800	-8.843142E-2
4/7/2025  12:44:46.111300	-9.038422E-2
4/7/2025  12:44:46.111800	-1.021010E-1
4/7/2025  12:44:46.112300	-1.001482E-1
4/7/2025  12:44:46.112800	-1.079594E-1
4/7/2025  12:44:46.113300	-1.095867E-1
4/7/2025  12:44:46.113800	-1.099122E-1
4/7/2025  12:44:46.114300	-1.300911E-1
4/7/2025  12:44:46.114800	-1.200017E-1
4/7/2025  12:44:46.115300	-1.170725E-1
4/7/2025  12:44:46.115800	-1.183743E-1
4/7/2025  12:44:46.116300	-1.271619E-1
4/7/2025  12:44:46.116800	-1.177234E-1
4/7/2025  12:44:46.117300	-1.138178E-1
4/7/2025  12:44:46.117800	-1.112141E-1
4/7/2025  12:44:46.118300	-1.086103E-1
4/7/2025  12:44:46.118800	-1.118650E-1
4/7/2025  12:44:46.119300	-1.082849E-1
4/7/2025  12:44:46.119800	-1.066575E-1
4/7/2025  12:44:46.120300	-1.056811E-1
4/7/2025  12:44:46.120800	-1.037283E-1
4/7/2025  12:44:46.121300	-9.786995E-2
4/7/2025  12:44:46.121800	-8.712956E-2
4/7/2025  12:44:46.122300	-8.127116E-2
4/7/2025  12:44:46.122800	-7.736557E-2
4/7/2025  12:44:46.123300	-7.541277E-2
4/7/2025  12:44:46.123800	-8.159663E-2
4/7/2025  12:44:46.124300	-7.573824E-2
4/7/2025  12:44:46.124800	-6.857798E-2
4/7/2025  12:44:46.125300	-7.313451E-2
4/7/2025  12:44:46.125800	-7.215811E-2
4/7/2025  12:44:46.126300	-7.476184E-2
4/7/2025  12:44:46.126800	-7.671463E-2
4/7/2025  12:44:46.127300	-8.127116E-2
4/7/2025  12:44:46.127800	-9.201155E-2
4/7/2025  12:44:46.128300	-8.322396E-2
4/7/2025  12:44:46.128800	-8.843142E-2
4/7/2025  12:44:46.129300	-9.201155E-2
4/7/2025  12:44:46.129800	-9.624261E-2
4/7/2025  12:44:46.130300	-8.875689E-2
4/7/2025  12:44:46.130800	-9.526622E-2
4/7/2025  12:44:46.131300	-9.689355E-2
4/7/2025  12:44:46.131800	-1.047047E-1
4/7/2025  12:44:46.132300	-1.079594E-1
4/7/2025  12:44:46.132800	-1.128414E-1
4/7/2025  12:44:46.133300	-1.235818E-1
4/7/2025  12:44:46.133800	-1.213035E-1
4/7/2025  12:44:46.134300	-1.209781E-1
4/7/2025  12:44:46.134800	-1.235818E-1
4/7/2025  12:44:46.135300	-1.157706E-1
4/7/2025  12:44:46.135800	-1.141433E-1
4/7/2025  12:44:46.136300	-1.108886E-1
4/7/2025  12:44:46.136800	-1.125159E-1
4/7/2025  12:44:46.137300	-1.050302E-1
4/7/2025  12:44:46.137800	-1.069830E-1
4/7/2025  12:44:46.138300	-1.030774E-1
4/7/2025  12:44:46.138800	-1.011246E-1
4/7/2025  12:44:46.139300	-9.949728E-2
4/7/2025  12:44:46.139800	-9.070969E-2
4/7/2025  12:44:46.140300	-8.875689E-2
4/7/2025  12:44:46.140800	-8.778049E-2
4/7/2025  12:44:46.141300	-7.834197E-2
4/7/2025  12:44:46.141800	-7.443637E-2
4/7/2025  12:44:46.142300	-7.085624E-2
4/7/2025  12:44:46.142800	-6.955438E-2
4/7/2025  12:44:46.143300	-6.141772E-2
4/7/2025  12:44:46.143800	-6.109225E-2
4/7/2025  12:44:46.144300	-7.020531E-2
4/7/2025  12:44:46.144800	-5.718666E-2
4/7/2025  12:44:46.145300	-6.109225E-2
4/7/2025  12:44:46.145800	-6.109225E-2
4/7/2025  12:44:46.146300	-6.141772E-2
4/7/2025  12:44:46.146800	-6.109225E-2
4/7/2025  12:44:46.147300	-7.150717E-2
4/7/2025  12:44:46.147800	-7.280904E-2
4/7/2025  12:44:46.148300	-7.378544E-2
4/7/2025  12:44:46.148800	-7.671463E-2
4/7/2025  12:44:46.149300	-7.964383E-2
4/7/2025  12:44:46.149800	-8.420036E-2
4/7/2025  12:44:46.150300	-9.233702E-2
4/7/2025  12:44:46.150800	-8.159663E-2
4/7/2025  12:44:46.151300	-8.029476E-2
4/7/2025  12:44:46.151800	-9.298795E-2
4/7/2025  12:44:46.152300	-1.001482E-1
4/7/2025  12:44:46.152800	-1.004737E-1
4/7/2025  12:44:46.153300	-1.063321E-1
4/7/2025  12:44:46.153800	-1.105631E-1
4/7/2025  12:44:46.154300	-1.128414E-1
4/7/2025  12:44:46.154800	-1.040538E-1
4/7/2025  12:44:46.155300	-1.069830E-1
4/7/2025  12:44:46.155800	-1.066575E-1
4/7/2025  12:44:46.156300	-1.086103E-1
4/7/2025  12:44:46.156800	-1.099122E-1
4/7/2025  12:44:46.157300	-1.050302E-1
4/7/2025  12:44:46.157800	-9.884635E-2
4/7/2025  12:44:46.158300	-1.050302E-1
4/7/2025  12:44:46.158800	-9.526622E-2
4/7/2025  12:44:46.159300	-9.005875E-2
4/7/2025  12:44:46.159800	-8.452583E-2
4/7/2025  12:44:46.160300	-7.899290E-2
4/7/2025  12:44:46.160800	-7.834197E-2
4/7/2025  12:44:46.161300	-7.345997E-2
4/7/2025  12:44:46.161800	-6.857798E-2
4/7/2025  12:44:46.162300	-5.979039E-2
4/7/2025  12:44:46.162800	-6.044132E-2
4/7/2025  12:44:46.163300	-4.677173E-2
4/7/2025  12:44:46.163800	-5.295559E-2
4/7/2025  12:44:46.164300	-4.416800E-2
4/7/2025  12:44:46.164800	-6.271958E-2
4/7/2025  12:44:46.165300	-5.425746E-2
4/7/2025  12:44:46.165800	-4.644627E-2
4/7/2025  12:44:46.166300	-5.393199E-2
4/7/2025  12:44:46.166800	-5.360653E-2
4/7/2025  12:44:46.167300	-6.857798E-2
4/7/2025  12:44:46.167800	-6.239412E-2
4/7/2025  12:44:46.168300	-6.239412E-2
4/7/2025  12:44:46.168800	-6.206865E-2
4/7/2025  12:44:46.169300	-6.337052E-2
4/7/2025  12:44:46.169800	-6.857798E-2
4/7/2025  12:44:46.170300	-6.434691E-2
4/7/2025  12:44:46.170800	-7.964383E-2
4/7/2025  12:44:46.171300	-7.996930E-2
4/7/2025  12:44:46.171800	-8.257303E-2
4/7/2025  12:44:46.172300	-8.550223E-2
4/7/2025  12:44:46.172800	-9.363888E-2
4/7/2025  12:44:46.173300	-8.908236E-2
4/7/2025  12:44:46.173800	-9.917181E-2
4/7/2025  12:44:46.174300	-9.526622E-2
4/7/2025  12:44:46.174800	-8.550223E-2
4/7/2025  12:44:46.175300	-9.038422E-2
4/7/2025  12:44:46.175800	-8.680409E-2
4/7/2025  12:44:46.176300	-8.973329E-2
4/7/2025  12:44:46.176800	-8.843142E-2
4/7/2025  12:44:46.177300	-8.094570E-2
4/7/2025  12:44:46.177800	-7.606370E-2
4/7/2025  12:44:46.178300	-7.671463E-2
4/7/2025  12:44:46.178800	-6.922891E-2
4/7/2025  12:44:46.179300	-6.337052E-2
4/7/2025  12:44:46.179800	-5.425746E-2
4/7/2025  12:44:46.180300	-6.044132E-2
4/7/2025  12:44:46.180800	-5.490839E-2
4/7/2025  12:44:46.181300	-4.579533E-2
4/7/2025  12:44:46.181800	-4.481893E-2
4/7/2025  12:44:46.182300	-3.830961E-2
4/7/2025  12:44:46.182800	-3.538041E-2
4/7/2025  12:44:46.183300	-3.114935E-2
4/7/2025  12:44:46.183800	-1.682883E-2
4/7/2025  12:44:46.184300	-1.878163E-2
4/7/2025  12:44:46.184800	-2.105989E-2
4/7/2025  12:44:46.185300	-1.389963E-2
4/7/2025  12:44:46.185800	-2.268722E-2
4/7/2025  12:44:46.186300	-2.040896E-2
4/7/2025  12:44:46.186800	-2.171082E-2
4/7/2025  12:44:46.187300	-2.366362E-2
4/7/2025  12:44:46.187800	-2.724375E-2
4/7/2025  12:44:46.188300	-2.919655E-2
4/7/2025  12:44:46.188800	-3.114935E-2
4/7/2025  12:44:46.189300	-3.538041E-2
4/7/2025  12:44:46.189800	-3.505494E-2
4/7/2025  12:44:46.190300	-2.594189E-2
4/7/2025  12:44:46.190800	-2.724375E-2
4/7/2025  12:44:46.191300	-3.310215E-2
4/7/2025  12:44:46.191800	-4.091334E-2
4/7/2025  12:44:46.192300	-4.546987E-2
4/7/2025  12:44:46.192800	-4.514440E-2
4/7/2025  12:44:46.193300	-4.481893E-2
4/7/2025  12:44:46.193800	-5.718666E-2
4/7/2025  12:44:46.194300	-5.588479E-2
4/7/2025  12:44:46.194800	-4.612080E-2
4/7/2025  12:44:46.195300	-4.123880E-2
4/7/2025  12:44:46.195800	-3.993694E-2
4/7/2025  12:44:46.196300	-3.863507E-2
4/7/2025  12:44:46.196800	-3.538041E-2
4/7/2025  12:44:46.197300	-3.147481E-2
4/7/2025  12:44:46.197800	-2.919655E-2
4/7/2025  12:44:46.198300	-2.594189E-2
4/7/2025  12:44:46.198800	-2.073443E-2
4/7/2025  12:44:46.199300	-1.650336E-2
4/7/2025  12:44:46.199800	-9.994037E-3
4/7/2025  12:44:46.200300	-8.366705E-3
4/7/2025  12:44:46.200800	-1.531912E-3
4/7/2025  12:44:46.201300	2.699150E-3
4/7/2025  12:44:46.201800	1.083581E-2
4/7/2025  12:44:46.202300	1.441594E-2
4/7/2025  12:44:46.202800	1.832153E-2
4/7/2025  12:44:46.203300	2.287806E-2
4/7/2025  12:44:46.203800	2.873646E-2
4/7/2025  12:44:46.204300	3.264205E-2
4/7/2025  12:44:46.204800	3.947685E-2
4/7/2025  12:44:46.205300	3.459485E-2
4/7/2025  12:44:46.205800	4.077871E-2
4/7/2025  12:44:46.206300	4.338244E-2
4/7/2025  12:44:46.206800	4.305698E-2
4/7/2025  12:44:46.207300	3.817498E-2
4/7/2025  12:44:46.207800	2.906192E-2
4/7/2025  12:44:46.208300	3.687311E-2
4/7/2025  12:44:46.208800	3.622218E-2
4/7/2025  12:44:46.209300	3.134019E-2
4/7/2025  12:44:46.209800	3.036379E-2
4/7/2025  12:44:46.210300	4.110418E-2
4/7/2025  12:44:46.210800	3.850045E-2
4/7/2025  12:44:46.211300	2.613273E-2
4/7/2025  12:44:46.211800	2.613273E-2
4/7/2025  12:44:46.212300	2.580726E-2
4/7/2025  12:44:46.212800	2.059980E-2
4/7/2025  12:44:46.213300	6.604746E-3
4/7/2025  12:44:46.213800	4.651948E-3
4/7/2025  12:44:46.214300	1.832153E-2
4/7/2025  12:44:46.214800	2.873646E-2
4/7/2025  12:44:46.215300	4.326482E-3
4/7/2025  12:44:46.215800	2.222713E-2
4/7/2025  12:44:46.216300	2.873646E-2
4/7/2025  12:44:46.216800	3.361845E-2
4/7/2025  12:44:46.217300	3.784951E-2
4/7/2025  12:44:46.217800	4.370791E-2
4/7/2025  12:44:46.218300	4.305698E-2
4/7/2025  12:44:46.218800	4.891537E-2
4/7/2025  12:44:46.219300	5.542470E-2
4/7/2025  12:44:46.219800	5.444830E-2
4/7/2025  12:44:46.220300	6.518869E-2
4/7/2025  12:44:46.220800	6.616508E-2
4/7/2025  12:44:46.221300	7.560361E-2
4/7/2025  12:44:46.221800	7.950920E-2
4/7/2025  12:44:46.222300	8.048560E-2
4/7/2025  12:44:46.222800	8.471667E-2
4/7/2025  12:44:46.223300	9.155146E-2
4/7/2025  12:44:46.223800	1.009900E-1
4/7/2025  12:44:46.224300	9.838625E-2
4/7/2025  12:44:46.224800	1.091266E-1
4/7/2025  12:44:46.225300	1.104285E-1
4/7/2025  12:44:46.225800	1.088012E-1
4/7/2025  12:44:46.226300	1.114049E-1
4/7/2025  12:44:46.226800	1.068484E-1
4/7/2025  12:44:46.227300	1.055465E-1
4/7/2025  12:44:46.227800	1.045701E-1
4/7/2025  12:44:46.228300	1.052210E-1
4/7/2025  12:44:46.228800	1.022918E-1
4/7/2025  12:44:46.229300	1.045701E-1
4/7/2025  12:44:46.229800	9.610799E-2
4/7/2025  12:44:46.230300	9.578252E-2
4/7/2025  12:44:46.230800	9.187692E-2
4/7/2025  12:44:46.231300	9.155146E-2
4/7/2025  12:44:46.231800	9.350426E-2
4/7/2025  12:44:46.232300	8.927319E-2
4/7/2025  12:44:46.232800	8.341480E-2
4/7/2025  12:44:46.233300	7.788187E-2
4/7/2025  12:44:46.233800	7.820734E-2
4/7/2025  12:44:46.234300	7.853281E-2
4/7/2025  12:44:46.234800	8.439120E-2
4/7/2025  12:44:46.235300	6.974521E-2
4/7/2025  12:44:46.235800	8.341480E-2
4/7/2025  12:44:46.236300	9.122599E-2
4/7/2025  12:44:46.236800	9.317879E-2
4/7/2025  12:44:46.237300	9.545705E-2
4/7/2025  12:44:46.237800	9.610799E-2
4/7/2025  12:44:46.238300	9.643345E-2
4/7/2025  12:44:46.238800	9.578252E-2
4/7/2025  12:44:46.239300	1.029428E-1
4/7/2025  12:44:46.239800	1.068484E-1
4/7/2025  12:44:46.240300	1.048956E-1
4/7/2025  12:44:46.240800	1.110794E-1
4/7/2025  12:44:46.241300	1.166124E-1
4/7/2025  12:44:46.241800	1.227962E-1
4/7/2025  12:44:46.242300	1.270273E-1
4/7/2025  12:44:46.242800	1.293056E-1
4/7/2025  12:44:46.243300	1.406969E-1
4/7/2025  12:44:46.243800	1.416733E-1
4/7/2025  12:44:46.244300	1.377677E-1
4/7/2025  12:44:46.244800	1.247490E-1
4/7/2025  12:44:46.245300	1.234472E-1
4/7/2025  12:44:46.245800	1.345130E-1
4/7/2025  12:44:46.246300	1.361403E-1
4/7/2025  12:44:46.246800	1.361403E-1
4/7/2025  12:44:46.247300	1.273528E-1
4/7/2025  12:44:46.247800	1.237726E-1
4/7/2025  12:44:46.248300	1.227962E-1
4/7/2025  12:44:46.248800	1.166124E-1
4/7/2025  12:44:46.249300	1.159614E-1
4/7/2025  12:44:46.249800	1.130322E-1
4/7/2025  12:44:46.250300	1.179142E-1
4/7/2025  12:44:46.250800	1.035937E-1
4/7/2025  12:44:46.251300	1.081502E-1
4/7/2025  12:44:46.251800	9.382972E-2
4/7/2025  12:44:46.252300	9.675892E-2
4/7/2025  12:44:46.252800	8.666946E-2
4/7/2025  12:44:46.253300	9.220239E-2
4/7/2025  12:44:46.253800	8.243840E-2
4/7/2025  12:44:46.254300	6.583962E-2
4/7/2025  12:44:46.254800	7.495268E-2
4/7/2025  12:44:46.255300	6.941975E-2
4/7/2025  12:44:46.255800	6.909428E-2
4/7/2025  12:44:46.256300	7.462721E-2
4/7/2025  12:44:46.256800	7.495268E-2
4/7/2025  12:44:46.257300	8.569306E-2
4/7/2025  12:44:46.257800	7.625454E-2
4/7/2025  12:44:46.258300	7.853281E-2
4/7/2025  12:44:46.258800	8.146200E-2
4/7/2025  12:44:46.259300	8.211293E-2
4/7/2025  12:44:46.259800	8.243840E-2
4/7/2025  12:44:46.260300	8.536760E-2
4/7/2025  12:44:46.260800	8.992413E-2
4/7/2025  12:44:46.261300	9.220239E-2
4/7/2025  12:44:46.261800	9.773532E-2
4/7/2025  12:44:46.262300	9.382972E-2
4/7/2025  12:44:46.262800	9.708439E-2
4/7/2025  12:44:46.263300	9.871172E-2
4/7/2025  12:44:46.263800	1.035937E-1
4/7/2025  12:44:46.264300	1.179142E-1
4/7/2025  12:44:46.264800	8.569306E-2
4/7/2025  12:44:46.265300	1.013154E-1
4/7/2025  12:44:46.265800	1.003390E-1
4/7/2025  12:44:46.266300	9.545705E-2
4/7/2025  12:44:46.266800	8.862226E-2
4/7/2025  12:44:46.267300	8.406573E-2
4/7/2025  12:44:46.267800	8.081107E-2
4/7/2025  12:44:46.268300	7.592907E-2
4/7/2025  12:44:46.268800	6.941975E-2
4/7/2025  12:44:46.269300	6.649055E-2
4/7/2025  12:44:46.269800	6.095762E-2
4/7/2025  12:44:46.270300	4.793897E-2
4/7/2025  12:44:46.270800	5.347190E-2
4/7/2025  12:44:46.271300	3.719858E-2
4/7/2025  12:44:46.271800	5.575016E-2
4/7/2025  12:44:46.272300	3.882591E-2
4/7/2025  12:44:46.272800	3.426938E-2
4/7/2025  12:44:46.273300	1.929793E-2
4/7/2025  12:44:46.273800	2.125073E-2
4/7/2025  12:44:46.274300	2.157620E-2
4/7/2025  12:44:46.274800	1.897247E-2
4/7/2025  12:44:46.275300	3.101472E-2
4/7/2025  12:44:46.275800	1.767060E-2
4/7/2025  12:44:46.276300	1.994887E-2
4/7/2025  12:44:46.276800	2.027433E-2
4/7/2025  12:44:46.277300	1.669420E-2
4/7/2025  12:44:46.277800	1.962340E-2
4/7/2025  12:44:46.278300	2.190166E-2
4/7/2025  12:44:46.278800	3.134019E-2
4/7/2025  12:44:46.279300	2.971286E-2
4/7/2025  12:44:46.279800	2.548179E-2
4/7/2025  12:44:46.280300	2.873646E-2
4/7/2025  12:44:46.280800	3.231659E-2
4/7/2025  12:44:46.281300	3.492032E-2
4/7/2025  12:44:46.281800	3.654765E-2
4/7/2025  12:44:46.282300	3.980231E-2
4/7/2025  12:44:46.282800	4.110418E-2
4/7/2025  12:44:46.283300	5.054270E-2
4/7/2025  12:44:46.283800	5.021723E-2
4/7/2025  12:44:46.284300	4.240604E-2
4/7/2025  12:44:46.284800	4.598617E-2
4/7/2025  12:44:46.285300	4.468431E-2
4/7/2025  12:44:46.285800	4.956630E-2
4/7/2025  12:44:46.286300	3.719858E-2
4/7/2025  12:44:46.286800	3.264205E-2
4/7/2025  12:44:46.287300	2.906192E-2
4/7/2025  12:44:46.287800	2.092526E-2
4/7/2025  12:44:46.288300	1.994887E-2
4/7/2025  12:44:46.288800	1.506687E-2
4/7/2025  12:44:46.289300	1.181221E-2
4/7/2025  12:44:46.289800	8.883010E-3
4/7/2025  12:44:46.290300	3.675549E-3
4/7/2025  12:44:46.290800	7.463520E-4
4/7/2025  12:44:46.291300	3.024616E-3
4/7/2025  12:44:46.291800	-1.357417E-2
4/7/2025  12:44:46.292300	-1.520150E-2
4/7/2025  12:44:46.292800	-1.845616E-2
4/7/2025  12:44:46.293300	-2.659282E-2
4/7/2025  12:44:46.293800	-4.481893E-2
4/7/2025  12:44:46.294300	-3.277668E-2
4/7/2025  12:44:46.294800	-3.635681E-2
4/7/2025  12:44:46.295300	-5.653572E-2
4/7/2025  12:44:46.295800	-3.928601E-2
4/7/2025  12:44:46.296300	-3.407855E-2
4/7/2025  12:44:46.296800	-3.342761E-2
4/7/2025  12:44:46.297300	-3.212575E-2
4/7/2025  12:44:46.297800	-3.212575E-2
4/7/2025  12:44:46.298300	-3.049842E-2
4/7/2025  12:44:46.298800	-2.887108E-2
4/7/2025  12:44:46.299300	-2.529095E-2
4/7/2025  12:44:46.299800	-3.212575E-2
4/7/2025  12:44:46.300300	-2.887108E-2
4/7/2025  12:44:46.300800	-2.333816E-2
4/7/2025  12:44:46.301300	-2.105989E-2
4/7/2025  12:44:46.301800	-1.747976E-2
4/7/2025  12:44:46.302300	-1.324870E-2
4/7/2025  12:44:46.302800	-5.112042E-3
4/7/2025  12:44:46.303300	-2.508311E-3
4/7/2025  12:44:46.303800	-1.259777E-2
4/7/2025  12:44:46.304300	-7.064840E-3
4/7/2025  12:44:46.304800	-6.088441E-3
4/7/2025  12:44:46.305300	-3.159244E-3
4/7/2025  12:44:46.305800	-9.017638E-3
4/7/2025  12:44:46.306300	-6.413907E-3
4/7/2025  12:44:46.306800	-1.747976E-2
4/7/2025  12:44:46.307300	-1.422510E-2
4/7/2025  12:44:46.307800	-2.008349E-2
4/7/2025  12:44:46.308300	-2.366362E-2
4/7/2025  12:44:46.308800	-2.659282E-2
4/7/2025  12:44:46.309300	-2.984748E-2
4/7/2025  12:44:46.309800	-3.277668E-2
4/7/2025  12:44:46.310300	-2.626735E-2
4/7/2025  12:44:46.310800	-3.440401E-2
4/7/2025  12:44:46.311300	-3.993694E-2
4/7/2025  12:44:46.311800	-4.123880E-2
4/7/2025  12:44:46.312300	-4.514440E-2
4/7/2025  12:44:46.312800	-4.807360E-2
4/7/2025  12:44:46.313300	-6.597425E-2
4/7/2025  12:44:46.313800	-5.653572E-2
4/7/2025  12:44:46.314300	-6.011585E-2
4/7/2025  12:44:46.314800	-6.499785E-2
4/7/2025  12:44:46.315300	-6.174318E-2
4/7/2025  12:44:46.315800	-6.044132E-2
4/7/2025  12:44:46.316300	-5.848852E-2
4/7/2025  12:44:46.316800	-5.751212E-2
4/7/2025  12:44:46.317300	-6.011585E-2
4/7/2025  12:44:46.317800	-5.197919E-2
4/7/2025  12:44:46.318300	-4.351707E-2
4/7/2025  12:44:46.318800	-4.546987E-2
4/7/2025  12:44:46.319300	-4.319160E-2
4/7/2025  12:44:46.319800	-4.872453E-2
4/7/2025  12:44:46.320300	-3.993694E-2
4/7/2025  12:44:46.320800	-4.123880E-2
4/7/2025  12:44:46.321300	-3.863507E-2
4/7/2025  12:44:46.321800	-2.724375E-2
4/7/2025  12:44:46.322300	-2.366362E-2
4/7/2025  12:44:46.322800	-1.975803E-2
4/7/2025  12:44:46.323300	-1.455057E-2
4/7/2025  12:44:46.323800	-2.496549E-2
4/7/2025  12:44:46.324300	-1.292323E-2
4/7/2025  12:44:46.324800	-7.064840E-3
4/7/2025  12:44:46.325300	-9.017638E-3
4/7/2025  12:44:46.325800	-1.259777E-2
4/7/2025  12:44:46.326300	-1.975803E-2
4/7/2025  12:44:46.326800	-2.073443E-2
4/7/2025  12:44:46.327300	-2.171082E-2
4/7/2025  12:44:46.327800	-2.431456E-2
4/7/2025  12:44:46.328300	-3.147481E-2
4/7/2025  12:44:46.328800	-2.919655E-2
4/7/2025  12:44:46.329300	-3.049842E-2
4/7/2025  12:44:46.329800	-2.984748E-2
4/7/2025  12:44:46.330300	-2.854562E-2
4/7/2025  12:44:46.330800	-3.082388E-2
4/7/2025  12:44:46.331300	-3.928601E-2
4/7/2025  12:44:46.331800	-4.351707E-2
4/7/2025  12:44:46.332300	-6.304505E-2
4/7/2025  12:44:46.332800	-5.230466E-2
4/7/2025  12:44:46.333300	-5.751212E-2
4/7/2025  12:44:46.333800	-6.434691E-2
4/7/2025  12:44:46.334300	-6.467238E-2
4/7/2025  12:44:46.334800	-6.922891E-2
4/7/2025  12:44:46.335300	-6.369598E-2
4/7/2025  12:44:46.335800	-6.304505E-2
4/7/2025  12:44:46.336300	-6.076678E-2
4/7/2025  12:44:46.336800	-6.174318E-2
4/7/2025  12:44:46.337300	-5.848852E-2
4/7/2025  12:44:46.337800	-5.686119E-2
4/7/2025  12:44:46.338300	-5.100279E-2
4/7/2025  12:44:46.338800	-4.612080E-2
4/7/2025  12:44:46.339300	-4.612080E-2
4/7/2025  12:44:46.339800	-4.384254E-2
4/7/2025  12:44:46.340300	-3.863507E-2
4/7/2025  12:44:46.340800	-3.668228E-2
4/7/2025  12:44:46.341300	-3.180028E-2
4/7/2025  12:44:46.341800	-2.887108E-2
4/7/2025  12:44:46.342300	-3.310215E-2
4/7/2025  12:44:46.342800	-2.008349E-2
4/7/2025  12:44:46.343300	-1.715430E-2
4/7/2025  12:44:46.343800	-1.682883E-2
4/7/2025  12:44:46.344300	-9.994037E-3
4/7/2025  12:44:46.344800	-1.292323E-2
4/7/2025  12:44:46.345300	-1.682883E-2
4/7/2025  12:44:46.345800	-2.268722E-2
4/7/2025  12:44:46.346300	-1.878163E-2
4/7/2025  12:44:46.346800	-2.040896E-2
4/7/2025  12:44:46.347300	-2.594189E-2
4/7/2025  12:44:46.347800	-2.822015E-2
4/7/2025  12:44:46.348300	-3.375308E-2
4/7/2025  12:44:46.348800	-3.700774E-2
4/7/2025  12:44:46.349300	-4.644627E-2
4/7/2025  12:44:46.349800	-4.286614E-2
4/7/2025  12:44:46.350300	-4.677173E-2
4/7/2025  12:44:46.350800	-4.091334E-2
4/7/2025  12:44:46.351300	-5.653572E-2
4/7/2025  12:44:46.351800	-5.588479E-2
4/7/2025  12:44:46.352300	-5.490839E-2
4/7/2025  12:44:46.352800	-6.044132E-2
4/7/2025  12:44:46.353300	-8.452583E-2
4/7/2025  12:44:46.353800	-8.094570E-2
4/7/2025  12:44:46.354300	-6.955438E-2
4/7/2025  12:44:46.354800	-7.280904E-2
4/7/2025  12:44:46.355300	-7.671463E-2
4/7/2025  12:44:46.355800	-7.183264E-2
4/7/2025  12:44:46.356300	-8.094570E-2
4/7/2025  12:44:46.356800	-6.727611E-2
4/7/2025  12:44:46.357300	-6.467238E-2
4/7/2025  12:44:46.357800	-6.044132E-2
4/7/2025  12:44:46.358300	-5.881399E-2
4/7/2025  12:44:46.358800	-5.718666E-2
4/7/2025  12:44:46.359300	-5.588479E-2
4/7/2025  12:44:46.359800	-5.165373E-2
4/7/2025  12:44:46.360300	-5.295559E-2
4/7/2025  12:44:46.360800	-4.514440E-2
4/7/2025  12:44:46.361300	-4.416800E-2
4/7/2025  12:44:46.361800	-3.993694E-2
4/7/2025  12:44:46.362300	-3.375308E-2
4/7/2025  12:44:46.362800	-2.464002E-2
4/7/2025  12:44:46.363300	-3.277668E-2
4/7/2025  12:44:46.363800	-1.845616E-2
4/7/2025  12:44:46.364300	-2.529095E-2
4/7/2025  12:44:46.364800	-3.114935E-2
4/7/2025  12:44:46.365300	-2.105989E-2
4/7/2025  12:44:46.365800	-2.105989E-2
4/7/2025  12:44:46.366300	-2.398909E-2
4/7/2025  12:44:46.366800	-2.919655E-2
4/7/2025  12:44:46.367300	-2.984748E-2
4/7/2025  12:44:46.367800	-4.026241E-2
4/7/2025  12:44:46.368300	-3.538041E-2
4/7/2025  12:44:46.368800	-3.928601E-2
4/7/2025  12:44:46.369300	-4.156427E-2
4/7/2025  12:44:46.369800	-4.546987E-2
4/7/2025  12:44:46.370300	-5.816305E-2
4/7/2025  12:44:46.370800	-5.653572E-2
4/7/2025  12:44:46.371300	-5.295559E-2
4/7/2025  12:44:46.371800	-5.653572E-2
4/7/2025  12:44:46.372300	-6.825251E-2
4/7/2025  12:44:46.372800	-8.029476E-2
4/7/2025  12:44:46.373300	-7.573824E-2
4/7/2025  12:44:46.373800	-7.053077E-2
4/7/2025  12:44:46.374300	-7.280904E-2
4/7/2025  12:44:46.374800	-8.127116E-2
4/7/2025  12:44:46.375300	-7.671463E-2
4/7/2025  12:44:46.375800	-7.638917E-2
4/7/2025  12:44:46.376300	-7.606370E-2
4/7/2025  12:44:46.376800	-7.215811E-2
4/7/2025  12:44:46.377300	-6.987984E-2
4/7/2025  12:44:46.377800	-6.174318E-2
4/7/2025  12:44:46.378300	-6.564878E-2
4/7/2025  12:44:46.378800	-6.174318E-2
4/7/2025  12:44:46.379300	-5.946492E-2
4/7/2025  12:44:46.379800	-5.653572E-2
4/7/2025  12:44:46.380300	-4.937546E-2
4/7/2025  12:44:46.380800	-4.709720E-2
4/7/2025  12:44:46.381300	-4.774813E-2
4/7/2025  12:44:46.381800	-4.123880E-2
4/7/2025  12:44:46.382300	-4.091334E-2
4/7/2025  12:44:46.382800	-4.286614E-2
4/7/2025  12:44:46.383300	-3.212575E-2
4/7/2025  12:44:46.383800	-2.691829E-2
4/7/2025  12:44:46.384300	-3.407855E-2
4/7/2025  12:44:46.384800	-6.088441E-3
4/7/2025  12:44:46.385300	-2.887108E-2
4/7/2025  12:44:46.385800	-2.561642E-2
4/7/2025  12:44:46.386300	-2.626735E-2
4/7/2025  12:44:46.386800	-2.789469E-2
4/7/2025  12:44:46.387300	-3.147481E-2
4/7/2025  12:44:46.387800	-3.342761E-2
4/7/2025  12:44:46.388300	-3.700774E-2
4/7/2025  12:44:46.388800	-3.993694E-2
4/7/2025  12:44:46.389300	-3.896054E-2
4/7/2025  12:44:46.389800	-5.263013E-2
4/7/2025  12:44:46.390300	-4.416800E-2
4/7/2025  12:44:46.390800	-5.555932E-2
4/7/2025  12:44:46.391300	-5.588479E-2
4/7/2025  12:44:46.391800	-6.890344E-2
4/7/2025  12:44:46.392300	-6.369598E-2
4/7/2025  12:44:46.392800	-6.792704E-2
4/7/2025  12:44:46.393300	-7.150717E-2
4/7/2025  12:44:46.393800	-7.411090E-2
4/7/2025  12:44:46.394300	-7.801650E-2
4/7/2025  12:44:46.394800	-7.183264E-2
4/7/2025  12:44:46.395300	-7.573824E-2
4/7/2025  12:44:46.395800	-7.020531E-2
4/7/2025  12:44:46.396300	-6.955438E-2
4/7/2025  12:44:46.396800	-7.085624E-2
4/7/2025  12:44:46.397300	-6.564878E-2
4/7/2025  12:44:46.397800	-6.727611E-2
4/7/2025  12:44:46.398300	-6.402145E-2
4/7/2025  12:44:46.398800	-5.425746E-2
4/7/2025  12:44:46.399300	-5.588479E-2
4/7/2025  12:44:46.399800	-5.653572E-2
4/7/2025  12:44:46.400300	-5.132826E-2
4/7/2025  12:44:46.400800	-5.132826E-2
4/7/2025  12:44:46.401300	-4.416800E-2
4/7/2025  12:44:46.401800	-3.961147E-2
4/7/2025  12:44:46.402300	-3.342761E-2
4/7/2025  12:44:46.402800	-2.529095E-2
4/7/2025  12:44:46.403300	-2.366362E-2
4/7/2025  12:44:46.403800	-2.301269E-2
4/7/2025  12:44:46.404300	-1.747976E-2
4/7/2025  12:44:46.404800	-1.617790E-2
4/7/2025  12:44:46.405300	-3.896054E-2
4/7/2025  12:44:46.405800	-2.008349E-2
4/7/2025  12:44:46.406300	-2.529095E-2
4/7/2025  12:44:46.406800	-2.756922E-2
4/7/2025  12:44:46.407300	-2.854562E-2
4/7/2025  12:44:46.407800	-3.570588E-2
4/7/2025  12:44:46.408300	-4.188974E-2
4/7/2025  12:44:46.408800	-4.319160E-2
4/7/2025  12:44:46.409300	-4.449347E-2
4/7/2025  12:44:46.409800	-4.905000E-2
4/7/2025  12:44:46.410300	-4.416800E-2
4/7/2025  12:44:46.410800	-5.230466E-2
4/7/2025  12:44:46.411300	-6.239412E-2
4/7/2025  12:44:46.411800	-5.458292E-2
4/7/2025  12:44:46.412300	-6.174318E-2
4/7/2025  12:44:46.412800	-8.062023E-2
4/7/2025  12:44:46.413300	-5.881399E-2
4/7/2025  12:44:46.413800	-7.638917E-2
4/7/2025  12:44:46.414300	-1.007991E-1
4/7/2025  12:44:46.414800	-8.029476E-2
4/7/2025  12:44:46.415300	-7.996930E-2
4/7/2025  12:44:46.415800	-8.029476E-2
4/7/2025  12:44:46.416300	-7.638917E-2
4/7/2025  12:44:46.416800	-7.671463E-2
4/7/2025  12:44:46.417300	-7.020531E-2
4/7/2025  12:44:46.417800	-6.857798E-2
4/7/2025  12:44:46.418300	-6.174318E-2
4/7/2025  12:44:46.418800	-6.792704E-2
4/7/2025  12:44:46.419300	-6.369598E-2
4/7/2025  12:44:46.419800	-6.304505E-2
4/7/2025  12:44:46.420300	-4.351707E-2
4/7/2025  12:44:46.420800	-5.002640E-2
4/7/2025  12:44:46.421300	-4.742267E-2
4/7/2025  12:44:46.421800	-3.798414E-2
4/7/2025  12:44:46.422300	-3.505494E-2
4/7/2025  12:44:46.422800	-2.431456E-2
4/7/2025  12:44:46.423300	-2.691829E-2
4/7/2025  12:44:46.423800	-2.171082E-2
4/7/2025  12:44:46.424300	-1.813070E-2
4/7/2025  12:44:46.424800	-3.277668E-2
4/7/2025  12:44:46.425300	-1.715430E-2
4/7/2025  12:44:46.425800	-2.366362E-2
4/7/2025  12:44:46.426300	-2.398909E-2
4/7/2025  12:44:46.426800	-2.366362E-2
4/7/2025  12:44:46.427300	-3.570588E-2
4/7/2025  12:44:46.427800	-2.887108E-2
4/7/2025  12:44:46.428300	-2.887108E-2
4/7/2025  12:44:46.428800	-3.570588E-2
4/7/2025  12:44:46.429300	-4.026241E-2
4/7/2025  12:44:46.429800	-4.644627E-2
4/7/2025  12:44:46.430300	-4.514440E-2
4/7/2025  12:44:46.430800	-4.872453E-2
4/7/2025  12:44:46.431300	-5.425746E-2
4/7/2025  12:44:46.431800	-5.458292E-2
4/7/2025  12:44:46.432300	-5.783759E-2
4/7/2025  12:44:46.432800	-7.866743E-2
4/7/2025  12:44:46.433300	-6.987984E-2
4/7/2025  12:44:46.433800	-7.606370E-2
4/7/2025  12:44:46.434300	-7.183264E-2
4/7/2025  12:44:46.434800	-7.476184E-2
4/7/2025  12:44:46.435300	-6.987984E-2
4/7/2025  12:44:46.435800	-7.541277E-2
4/7/2025  12:44:46.436300	-7.215811E-2
4/7/2025  12:44:46.436800	-7.118171E-2
4/7/2025  12:44:46.437300	-7.020531E-2
4/7/2025  12:44:46.437800	-6.564878E-2
4/7/2025  12:44:46.438300	-6.434691E-2
4/7/2025  12:44:46.438800	-6.076678E-2
4/7/2025  12:44:46.439300	-5.686119E-2
4/7/2025  12:44:46.439800	-5.523386E-2
4/7/2025  12:44:46.440300	-5.653572E-2
4/7/2025  12:44:46.440800	-5.523386E-2
4/7/2025  12:44:46.441300	-5.946492E-2
4/7/2025  12:44:46.441800	-4.091334E-2
4/7/2025  12:44:46.442300	-3.635681E-2
4/7/2025  12:44:46.442800	-3.310215E-2
4/7/2025  12:44:46.443300	-3.440401E-2
4/7/2025  12:44:46.443800	-2.398909E-2
4/7/2025  12:44:46.444300	-3.538041E-2
4/7/2025  12:44:46.444800	-2.203629E-2
4/7/2025  12:44:46.445300	-3.082388E-2
4/7/2025  12:44:46.445800	-2.301269E-2
4/7/2025  12:44:46.446300	-2.529095E-2
4/7/2025  12:44:46.446800	-2.822015E-2
4/7/2025  12:44:46.447300	-2.887108E-2
4/7/2025  12:44:46.447800	-3.407855E-2
4/7/2025  12:44:46.448300	-4.319160E-2
4/7/2025  12:44:46.448800	-3.961147E-2
4/7/2025  12:44:46.449300	-4.449347E-2
4/7/2025  12:44:46.449800	-4.612080E-2
4/7/2025  12:44:46.450300	-4.514440E-2
4/7/2025  12:44:46.450800	-4.481893E-2
4/7/2025  12:44:46.451300	-5.523386E-2
4/7/2025  12:44:46.451800	-5.979039E-2
4/7/2025  12:44:46.452300	-6.141772E-2
4/7/2025  12:44:46.452800	-6.987984E-2
4/7/2025  12:44:46.453300	-6.629971E-2
4/7/2025  12:44:46.453800	-7.443637E-2
4/7/2025  12:44:46.454300	-7.411090E-2
4/7/2025  12:44:46.454800	-7.476184E-2
4/7/2025  12:44:46.455300	-6.174318E-2
4/7/2025  12:44:46.455800	-6.792704E-2
4/7/2025  12:44:46.456300	-6.825251E-2
4/7/2025  12:44:46.456800	-6.662518E-2
4/7/2025  12:44:46.457300	-6.564878E-2
4/7/2025  12:44:46.457800	-6.206865E-2
4/7/2025  12:44:46.458300	-5.718666E-2
4/7/2025  12:44:46.458800	-5.555932E-2
